nm, %R
3300.000000, 201.446400
3299.000000, 211.379500
3298.000000, 203.560800
3297.000000, 210.232500
3296.000000, 234.739200
3295.000000, 231.446800
3294.000000, 239.880300
3293.000000, 231.872100
3292.000000, 248.621500
3291.000000, 269.813900
3290.000000, 276.419100
3289.000000, 275.942400
3288.000000, 280.497500
3287.000000, 314.453500
3286.000000, 313.663600
3285.000000, 350.041900
3284.000000, 363.030400
3283.000000, 380.841000
3282.000000, 381.485200
3281.000000, 403.082500
3280.000000, 445.105400
3279.000000, 462.374100
3278.000000, 518.010800
3277.000000, 494.843300
3276.000000, 556.644500
3275.000000, 589.004300
3274.000000, 595.215200
3273.000000, 684.130800
3272.000000, 657.127800
3271.000000, 682.468800
3270.000000, 806.801400
3269.000000, 831.371400
3268.000000, 980.265600
3267.000000, 1160.493300
3266.000000, 1227.428100
3265.000000, 1506.973900
3264.000000, 1926.546100
3263.000000, 2845.274200
3262.000000, 2380.106700
3261.000000, -12918.217500
3260.000000, -2090.364500
3259.000000, -1658.477800
3258.000000, -1188.217800
3257.000000, -892.782000
3256.000000, -794.994200
3255.000000, -569.427800
3254.000000, -471.708000
3253.000000, -389.556400
3252.000000, -358.043600
3251.000000, -332.866000
3250.000000, -298.025400
3249.000000, -272.550600
3248.000000, -249.082800
3247.000000, -228.020900
3246.000000, -215.060700
3245.000000, -200.108000
3244.000000, -186.014200
3243.000000, -180.259500
3242.000000, -167.693900
3241.000000, -163.277900
3240.000000, -157.073200
3239.000000, -150.226100
3238.000000, -141.588800
3237.000000, -136.482800
3236.000000, -130.728000
3235.000000, -131.294900
3234.000000, -128.437300
3233.000000, -124.268900
3232.000000, -120.644900
3231.000000, -116.604800
3230.000000, -114.433000
3229.000000, -113.128400
3228.000000, -111.719200
3227.000000, -108.590200
3226.000000, -105.219100
3225.000000, -102.806300
3224.000000, -100.215600
3223.000000, -100.534200
3222.000000, -99.498300
3221.000000, -96.224900
3220.000000, -93.334100
3219.000000, -89.700200
3218.000000, -87.764800
3217.000000, -84.453500
3216.000000, -82.109200
3215.000000, -82.901000
3214.000000, -81.432000
3213.000000, -79.034600
3212.000000, -77.884400
3211.000000, -76.244800
3210.000000, -74.275000
3209.000000, -72.395900
3208.000000, -70.757300
3207.000000, -69.197500
3206.000000, -68.446900
3205.000000, -66.009900
3204.000000, -64.169500
3203.000000, -62.827900
3202.000000, -61.555200
3201.000000, -60.784100
3200.000000, -59.060500
3199.000000, -57.804700
3198.000000, -56.903400
3197.000000, -55.510300
3196.000000, -53.670200
3195.000000, -52.459600
3194.000000, -51.284500
3193.000000, -50.016400
3192.000000, -48.979700
3191.000000, -47.691800
3190.000000, -46.433300
3189.000000, -45.170100
3188.000000, -44.146600
3187.000000, -43.399900
3186.000000, -42.419300
3185.000000, -41.552000
3184.000000, -40.821500
3183.000000, -40.007700
3182.000000, -39.443600
3181.000000, -38.643200
3180.000000, -37.876500
3179.000000, -37.445900
3178.000000, -36.580900
3177.000000, -35.809500
3176.000000, -35.455700
3175.000000, -34.911100
3174.000000, -34.471500
3173.000000, -33.927500
3172.000000, -33.186200
3171.000000, -32.676500
3170.000000, -32.303000
3169.000000, -31.765200
3168.000000, -31.150000
3167.000000, -30.647700
3166.000000, -30.225900
3165.000000, -29.865900
3164.000000, -29.447300
3163.000000, -29.082500
3162.000000, -28.738200
3161.000000, -28.180300
3160.000000, -27.792500
3159.000000, -27.525000
3158.000000, -27.237000
3157.000000, -26.943100
3156.000000, -26.584700
3155.000000, -26.195000
3154.000000, -25.840700
3153.000000, -25.480200
3152.000000, -25.136800
3151.000000, -24.773800
3150.000000, -24.509600
3149.000000, -24.176900
3148.000000, -23.951200
3147.000000, -23.670000
3146.000000, -23.302500
3145.000000, -23.136400
3144.000000, -22.947600
3143.000000, -22.503000
3142.000000, -22.143900
3141.000000, -21.813100
3140.000000, -21.514700
3139.000000, -21.180900
3138.000000, -20.921000
3137.000000, -20.607700
3136.000000, -20.198300
3135.000000, -20.041000
3134.000000, -19.739500
3133.000000, -19.425600
3132.000000, -19.220900
3131.000000, -18.924700
3130.000000, -18.653300
3129.000000, -18.471500
3128.000000, -18.253800
3127.000000, -17.946100
3126.000000, -17.760400
3125.000000, -17.464000
3124.000000, -17.238900
3123.000000, -17.037400
3122.000000, -16.859000
3121.000000, -16.680400
3120.000000, -16.366500
3119.000000, -16.102300
3118.000000, -15.970800
3117.000000, -15.810300
3116.000000, -15.578500
3115.000000, -15.350200
3114.000000, -15.191000
3113.000000, -15.065300
3112.000000, -14.818000
3111.000000, -14.570300
3110.000000, -14.399800
3109.000000, -14.200100
3108.000000, -14.022000
3107.000000, -13.840300
3106.000000, -13.668300
3105.000000, -13.481000
3104.000000, -13.201300
3103.000000, -12.998800
3102.000000, -12.857100
3101.000000, -12.688800
3100.000000, -12.434500
3099.000000, -12.228800
3098.000000, -12.172000
3097.000000, -11.964700
3096.000000, -11.772200
3095.000000, -11.647600
3094.000000, -11.438300
3093.000000, -11.347400
3092.000000, -11.163200
3091.000000, -11.011200
3090.000000, -10.901300
3089.000000, -10.770800
3088.000000, -10.596700
3087.000000, -10.418900
3086.000000, -10.337200
3085.000000, -10.224000
3084.000000, -10.084600
3083.000000, -9.948900
3082.000000, -9.861600
3081.000000, -9.704400
3080.000000, -9.555500
3079.000000, -9.435500
3078.000000, -9.325600
3077.000000, -9.245000
3076.000000, -9.133500
3075.000000, -8.973200
3074.000000, -8.848500
3073.000000, -8.806100
3072.000000, -8.651700
3071.000000, -8.550800
3070.000000, -8.446700
3069.000000, -8.324500
3068.000000, -8.242700
3067.000000, -8.115900
3066.000000, -8.004400
3065.000000, -7.916600
3064.000000, -7.855300
3063.000000, -7.780600
3062.000000, -7.650600
3061.000000, -7.597600
3060.000000, -7.500600
3059.000000, -7.497200
3058.000000, -7.386600
3057.000000, -7.302500
3056.000000, -7.284300
3055.000000, -7.191900
3054.000000, -7.075200
3053.000000, -7.058800
3052.000000, -6.995600
3051.000000, -6.899000
3050.000000, -6.855200
3049.000000, -6.777200
3048.000000, -6.708500
3047.000000, -6.633300
3046.000000, -6.514100
3045.000000, -6.516200
3044.000000, -6.430500
3043.000000, -6.334600
3042.000000, -6.284700
3041.000000, -6.219500
3040.000000, -6.107600
3039.000000, -6.036800
3038.000000, -5.968700
3037.000000, -5.898200
3036.000000, -5.864100
3035.000000, -5.772900
3034.000000, -5.696800
3033.000000, -5.638600
3032.000000, -5.618500
3031.000000, -5.588900
3030.000000, -5.519300
3029.000000, -5.457900
3028.000000, -5.407800
3027.000000, -5.348000
3026.000000, -5.290100
3025.000000, -5.257600
3024.000000, -5.169900
3023.000000, -5.140900
3022.000000, -5.075200
3021.000000, -5.061300
3020.000000, -5.015400
3019.000000, -4.965300
3018.000000, -4.927300
3017.000000, -4.862800
3016.000000, -4.822400
3015.000000, -4.747100
3014.000000, -4.723300
3013.000000, -4.668100
3012.000000, -4.622400
3011.000000, -4.587800
3010.000000, -4.529100
3009.000000, -4.475300
3008.000000, -4.439500
3007.000000, -4.390300
3006.000000, -4.381500
3005.000000, -4.320800
3004.000000, -4.269400
3003.000000, -4.241500
3002.000000, -4.219000
3001.000000, -4.170300
3000.000000, -4.139900
2999.000000, -4.179000
2998.000000, -4.429900
2997.000000, -4.467800
2996.000000, -4.497300
2995.000000, -4.412200
2994.000000, -4.493500
2993.000000, -4.366900
2992.000000, -4.434100
2991.000000, -4.299600
2990.000000, -4.393000
2989.000000, -4.308200
2988.000000, -4.178300
2987.000000, -4.152700
2986.000000, -4.140100
2985.000000, -4.163800
2984.000000, -4.160400
2983.000000, -4.068800
2982.000000, -4.004200
2981.000000, -3.939400
2980.000000, -3.974800
2979.000000, -4.052500
2978.000000, -3.999500
2977.000000, -3.939000
2976.000000, -3.898200
2975.000000, -3.921000
2974.000000, -3.782600
2973.000000, -3.774100
2972.000000, -3.775400
2971.000000, -3.761400
2970.000000, -3.732000
2969.000000, -3.684800
2968.000000, -3.643900
2967.000000, -3.606600
2966.000000, -3.462600
2965.000000, -3.465000
2964.000000, -3.514900
2963.000000, -3.480100
2962.000000, -3.431700
2961.000000, -3.341800
2960.000000, -3.313400
2959.000000, -3.284200
2958.000000, -3.232900
2957.000000, -3.168600
2956.000000, -3.184100
2955.000000, -3.191700
2954.000000, -3.169100
2953.000000, -3.145700
2952.000000, -3.091400
2951.000000, -3.107900
2950.000000, -3.078800
2949.000000, -3.050600
2948.000000, -3.072500
2947.000000, -2.993400
2946.000000, -2.954500
2945.000000, -2.964100
2944.000000, -2.934700
2943.000000, -2.884400
2942.000000, -2.828200
2941.000000, -2.836900
2940.000000, -2.823700
2939.000000, -2.809800
2938.000000, -2.751800
2937.000000, -2.704900
2936.000000, -2.674200
2935.000000, -2.646000
2934.000000, -2.585700
2933.000000, -2.576800
2932.000000, -2.620300
2931.000000, -2.587900
2930.000000, -2.551900
2929.000000, -2.526900
2928.000000, -2.494900
2927.000000, -2.507200
2926.000000, -2.496100
2925.000000, -2.452400
2924.000000, -2.458100
2923.000000, -2.455500
2922.000000, -2.435100
2921.000000, -2.405100
2920.000000, -2.376600
2919.000000, -2.381000
2918.000000, -2.391500
2917.000000, -2.366000
2916.000000, -2.307600
2915.000000, -2.324900
2914.000000, -2.318300
2913.000000, -2.248800
2912.000000, -2.244000
2911.000000, -2.239900
2910.000000, -2.224500
2909.000000, -2.246200
2908.000000, -2.215600
2907.000000, -2.182600
2906.000000, -2.166600
2905.000000, -2.190900
2904.000000, -2.171000
2903.000000, -2.143200
2902.000000, -2.146100
2901.000000, -2.121400
2900.000000, -2.117700
2899.000000, -2.088200
2898.000000, -2.061200
2897.000000, -2.056500
2896.000000, -2.045100
2895.000000, -2.009800
2894.000000, -2.018900
2893.000000, -2.026300
2892.000000, -1.946700
2891.000000, -1.973700
2890.000000, -1.945300
2889.000000, -1.916400
2888.000000, -1.926000
2887.000000, -1.942000
2886.000000, -1.946900
2885.000000, -1.885800
2884.000000, -1.855700
2883.000000, -1.874700
2882.000000, -1.899800
2881.000000, -1.828400
2880.000000, -1.850600
2879.000000, -1.872400
2878.000000, -1.841400
2877.000000, -1.793600
2876.000000, -1.807700
2875.000000, -1.818700
2874.000000, -1.795900
2873.000000, -1.820500
2872.000000, -1.835900
2871.000000, -1.802900
2870.000000, -1.795500
2869.000000, -1.798700
2868.000000, -1.775500
2867.000000, -1.792300
2866.000000, -1.759900
2865.000000, -1.764500
2864.000000, -1.757400
2863.000000, -1.768600
2862.000000, -1.738600
2861.000000, -1.737400
2860.000000, -1.736900
2859.000000, -1.776300
2858.000000, -1.787800
2857.000000, -1.752600
2856.000000, -1.804800
2855.000000, -1.778300
2854.000000, -1.802700
2853.000000, -1.763400
2852.000000, -1.753600
2851.000000, -1.755600
2850.000000, -1.758600
2849.000000, -1.763400
2848.000000, -1.733000
2847.000000, -1.762700
2846.000000, -1.711400
2845.000000, -1.756800
2844.000000, -1.793100
2843.000000, -1.764300
2842.000000, -1.723900
2841.000000, -1.735200
2840.000000, -1.776400
2839.000000, -1.785000
2838.000000, -1.728900
2837.000000, -1.793100
2836.000000, -1.757400
2835.000000, -1.780600
2834.000000, -1.779900
2833.000000, -1.788600
2832.000000, -1.766200
2831.000000, -1.748800
2830.000000, -1.757000
2829.000000, -1.738700
2828.000000, -1.744000
2827.000000, -1.851300
2826.000000, -1.726900
2825.000000, -1.727900
2824.000000, -1.752700
2823.000000, -1.773500
2822.000000, -1.760000
2821.000000, -1.773400
2820.000000, -1.739600
2819.000000, -1.772300
2818.000000, -1.808100
2817.000000, -1.781000
2816.000000, -1.804000
2815.000000, -1.806300
2814.000000, -1.826700
2813.000000, -1.870400
2812.000000, -1.875600
2811.000000, -1.898200
2810.000000, -1.955700
2809.000000, -1.962500
2808.000000, -1.953500
2807.000000, -1.992200
2806.000000, -1.997200
2805.000000, -2.055500
2804.000000, -2.082000
2803.000000, -2.045900
2802.000000, -2.056100
2801.000000, -2.024100
2800.000000, -2.091900
2799.000000, -2.042800
2798.000000, -2.050200
2797.000000, -2.079000
2796.000000, -2.038400
2795.000000, -2.052800
2794.000000, -2.078900
2793.000000, -2.064600
2792.000000, -2.053200
2791.000000, -2.138000
2790.000000, -2.172500
2789.000000, -2.173900
2788.000000, -2.210300
2787.000000, -2.255800
2786.000000, -2.292300
2785.000000, -2.324300
2784.000000, -2.378100
2783.000000, -2.402900
2782.000000, -2.501700
2781.000000, -2.497600
2780.000000, -2.520100
2779.000000, -2.541200
2778.000000, -2.583300
2777.000000, -2.671400
2776.000000, -2.667100
2775.000000, -2.752700
2774.000000, -2.819300
2773.000000, -2.780700
2772.000000, -2.885500
2771.000000, -2.975300
2770.000000, -2.955400
2769.000000, -2.956800
2768.000000, -3.047100
2767.000000, -3.137600
2766.000000, -3.069500
2765.000000, -3.213700
2764.000000, -3.311400
2763.000000, -3.365600
2762.000000, -3.316500
2761.000000, -3.309900
2760.000000, -3.192600
2759.000000, -3.386500
2758.000000, -3.293300
2757.000000, -3.197100
2756.000000, -3.155000
2755.000000, -3.014700
2754.000000, -2.960100
2753.000000, -2.985800
2752.000000, -2.868900
2751.000000, -2.807300
2750.000000, -2.701500
2749.000000, -2.707900
2748.000000, -2.739900
2747.000000, -2.730400
2746.000000, -2.718600
2745.000000, -2.681400
2744.000000, -2.689500
2743.000000, -2.730700
2742.000000, -2.718600
2741.000000, -2.714300
2740.000000, -2.664200
2739.000000, -2.707700
2738.000000, -2.638000
2737.000000, -2.634400
2736.000000, -2.657000
2735.000000, -2.571200
2734.000000, -2.532200
2733.000000, -2.520100
2732.000000, -2.540400
2731.000000, -2.525500
2730.000000, -2.498200
2729.000000, -2.550400
2728.000000, -2.563400
2727.000000, -2.579000
2726.000000, -2.499200
2725.000000, -2.572500
2724.000000, -2.630600
2723.000000, -2.693400
2722.000000, -2.739400
2721.000000, -2.796800
2720.000000, -2.882200
2719.000000, -2.970800
2718.000000, -3.013500
2717.000000, -3.016800
2716.000000, -3.039900
2715.000000, -3.070700
2714.000000, -3.071300
2713.000000, -3.002800
2712.000000, -2.944200
2711.000000, -2.900500
2710.000000, -2.807700
2709.000000, -2.807400
2708.000000, -2.700200
2707.000000, -2.597800
2706.000000, -2.566600
2705.000000, -2.579500
2704.000000, -2.493300
2703.000000, -2.417300
2702.000000, -2.426600
2701.000000, -2.412300
2700.000000, -2.340300
2699.000000, -2.320700
2698.000000, -2.327900
2697.000000, -2.361600
2696.000000, -2.329800
2695.000000, -2.306300
2694.000000, -2.339000
2693.000000, -2.351300
2692.000000, -2.336300
2691.000000, -2.336100
2690.000000, -2.336900
2689.000000, -2.393400
2688.000000, -2.428600
2687.000000, -2.437700
2686.000000, -2.501300
2685.000000, -2.550600
2684.000000, -2.576100
2683.000000, -2.637300
2682.000000, -2.719900
2681.000000, -2.813200
2680.000000, -3.088600
2679.000000, -3.423800
2678.000000, -3.546700
2677.000000, -3.738500
2676.000000, -3.924200
2675.000000, -4.050000
2674.000000, -4.283500
2673.000000, -4.352600
2672.000000, -4.448800
2671.000000, -4.555500
2670.000000, -4.481300
2669.000000, -4.383700
2668.000000, -4.222000
2667.000000, -4.059800
2666.000000, -3.854800
2665.000000, -3.648000
2664.000000, -3.455000
2663.000000, -3.182700
2662.000000, -2.874700
2661.000000, -2.638800
2660.000000, -2.459800
2659.000000, -2.253800
2658.000000, -2.062000
2657.000000, -1.985200
2656.000000, -1.853100
2655.000000, -1.714700
2654.000000, -1.629900
2653.000000, -1.548500
2652.000000, -1.488700
2651.000000, -1.406100
2650.000000, -1.340400
2649.000000, -1.326400
2648.000000, -1.268900
2647.000000, -1.202300
2646.000000, -1.181800
2645.000000, -1.173700
2644.000000, -1.148700
2643.000000, -1.145700
2642.000000, -1.133400
2641.000000, -1.125600
2640.000000, -1.120900
2639.000000, -1.121400
2638.000000, -1.145600
2637.000000, -1.143500
2636.000000, -1.164500
2635.000000, -1.193800
2634.000000, -1.200900
2633.000000, -1.224300
2632.000000, -1.259800
2631.000000, -1.303000
2630.000000, -1.340800
2629.000000, -1.377200
2628.000000, -1.416000
2627.000000, -1.459400
2626.000000, -1.502700
2625.000000, -1.574200
2624.000000, -1.591500
2623.000000, -1.600800
2622.000000, -1.601400
2621.000000, -1.645000
2620.000000, -1.677800
2619.000000, -1.673200
2618.000000, -1.685100
2617.000000, -1.740900
2616.000000, -1.789300
2615.000000, -1.804600
2614.000000, -1.822400
2613.000000, -1.798500
2612.000000, -1.808600
2611.000000, -1.824600
2610.000000, -1.838800
2609.000000, -1.846900
2608.000000, -1.876400
2607.000000, -1.868000
2606.000000, -1.933100
2605.000000, -1.917900
2604.000000, -1.899300
2603.000000, -1.871400
2602.000000, -1.888900
2601.000000, -1.861300
2600.000000, -1.814900
2599.000000, -1.800700
2598.000000, -1.808700
2597.000000, -1.812400
2596.000000, -1.813200
2595.000000, -1.795100
2594.000000, -1.754300
2593.000000, -1.789700
2592.000000, -1.762000
2591.000000, -1.711300
2590.000000, -1.682500
2589.000000, -1.635000
2588.000000, -1.657800
2587.000000, -1.602200
2586.000000, -1.571100
2585.000000, -1.552900
2584.000000, -1.528300
2583.000000, -1.517200
2582.000000, -1.457800
2581.000000, -1.466400
2580.000000, -1.422900
2579.000000, -1.334200
2578.000000, -1.334800
2577.000000, -1.304300
2576.000000, -1.301900
2575.000000, -1.235100
2574.000000, -1.247500
2573.000000, -1.227500
2572.000000, -1.218600
2571.000000, -1.191500
2570.000000, -1.204600
2569.000000, -1.144900
2568.000000, -1.126600
2567.000000, -1.084300
2566.000000, -1.081200
2565.000000, -1.068300
2564.000000, -1.073900
2563.000000, -1.050500
2562.000000, -0.980400
2561.000000, -0.942900
2560.000000, -0.956500
2559.000000, -0.923600
2558.000000, -0.920400
2557.000000, -0.882800
2556.000000, -0.847400
2555.000000, -0.836500
2554.000000, -0.827600
2553.000000, -0.799900
2552.000000, -0.792000
2551.000000, -0.787100
2550.000000, -0.761300
2549.000000, -0.767900
2548.000000, -0.757500
2547.000000, -0.709000
2546.000000, -0.737300
2545.000000, -0.724900
2544.000000, -0.702200
2543.000000, -0.719100
2542.000000, -0.678400
2541.000000, -0.685900
2540.000000, -0.656700
2539.000000, -0.670800
2538.000000, -0.674700
2537.000000, -0.662800
2536.000000, -0.631300
2535.000000, -0.627700
2534.000000, -0.642800
2533.000000, -0.614800
2532.000000, -0.601000
2531.000000, -0.611000
2530.000000, -0.577900
2529.000000, -0.595700
2528.000000, -0.581000
2527.000000, -0.554400
2526.000000, -0.542300
2525.000000, -0.552100
2524.000000, -0.562200
2523.000000, -0.540100
2522.000000, -0.518100
2521.000000, -0.508400
2520.000000, -0.525200
2519.000000, -0.511800
2518.000000, -0.508600
2517.000000, -0.504600
2516.000000, -0.489200
2515.000000, -0.479100
2514.000000, -0.488200
2513.000000, -0.472700
2512.000000, -0.481100
2511.000000, -0.453900
2510.000000, -0.459000
2509.000000, -0.453600
2508.000000, -0.468700
2507.000000, -0.449600
2506.000000, -0.441600
2505.000000, -0.445800
2504.000000, -0.445100
2503.000000, -0.437800
2502.000000, -0.439100
2501.000000, -0.439100
2500.000000, -0.450000
2499.000000, -0.440400
2498.000000, -0.432000
2497.000000, -0.431500
2496.000000, -0.432600
2495.000000, -0.427100
2494.000000, -0.406200
2493.000000, -0.415300
2492.000000, -0.420300
2491.000000, -0.419000
2490.000000, -0.421500
2489.000000, -0.422700
2488.000000, -0.407200
2487.000000, -0.400400
2486.000000, -0.398000
2485.000000, -0.402900
2484.000000, -0.403900
2483.000000, -0.410900
2482.000000, -0.412600
2481.000000, -0.405200
2480.000000, -0.396400
2479.000000, -0.386100
2478.000000, -0.357600
2477.000000, -0.391200
2476.000000, -0.373100
2475.000000, -0.412100
2474.000000, -0.433700
2473.000000, -0.400900
2472.000000, -0.392500
2471.000000, -0.399800
2470.000000, -0.412700
2469.000000, -0.385900
2468.000000, -0.375700
2467.000000, -0.403800
2466.000000, -0.402100
2465.000000, -0.399100
2464.000000, -0.421800
2463.000000, -0.409000
2462.000000, -0.395500
2461.000000, -0.385900
2460.000000, -0.389000
2459.000000, -0.390300
2458.000000, -0.366400
2457.000000, -0.383200
2456.000000, -0.410400
2455.000000, -0.395700
2454.000000, -0.403200
2453.000000, -0.355700
2452.000000, -0.385700
2451.000000, -0.399400
2450.000000, -0.380900
2449.000000, -0.390600
2448.000000, -0.393700
2447.000000, -0.384100
2446.000000, -0.383300
2445.000000, -0.402700
2444.000000, -0.410100
2443.000000, -0.373500
2442.000000, -0.387000
2441.000000, -0.393900
2440.000000, -0.391600
2439.000000, -0.408400
2438.000000, -0.402600
2437.000000, -0.387000
2436.000000, -0.396100
2435.000000, -0.397800
2434.000000, -0.387500
2433.000000, -0.364200
2432.000000, -0.386100
2431.000000, -0.403600
2430.000000, -0.390700
2429.000000, -0.367200
2428.000000, -0.401000
2427.000000, -0.415500
2426.000000, -0.356600
2425.000000, -0.333100
2424.000000, -0.367400
2423.000000, -0.388200
2422.000000, -0.382800
2421.000000, -0.379400
2420.000000, -0.397900
2419.000000, -0.374300
2418.000000, -0.360600
2417.000000, -0.358900
2416.000000, -0.358600
2415.000000, -0.373100
2414.000000, -0.358000
2413.000000, -0.351000
2412.000000, -0.356000
2411.000000, -0.352500
2410.000000, -0.368800
2409.000000, -0.379400
2408.000000, -0.381400
2407.000000, -0.347400
2406.000000, -0.358400
2405.000000, -0.379700
2404.000000, -0.352000
2403.000000, -0.338600
2402.000000, -0.342600
2401.000000, -0.371800
2400.000000, -0.356800
2399.000000, -0.337200
2398.000000, -0.357600
2397.000000, -0.360400
2396.000000, -0.378900
2395.000000, -0.360500
2394.000000, -0.346800
2393.000000, -0.381800
2392.000000, -0.383600
2391.000000, -0.345500
2390.000000, -0.348600
2389.000000, -0.355500
2388.000000, -0.349100
2387.000000, -0.347000
2386.000000, -0.349500
2385.000000, -0.353200
2384.000000, -0.360400
2383.000000, -0.346100
2382.000000, -0.362200
2381.000000, -0.356500
2380.000000, -0.350200
2379.000000, -0.366600
2378.000000, -0.361600
2377.000000, -0.343200
2376.000000, -0.326500
2375.000000, -0.342700
2374.000000, -0.350600
2373.000000, -0.343300
2372.000000, -0.331000
2371.000000, -0.356000
2370.000000, -0.342300
2369.000000, -0.361300
2368.000000, -0.345300
2367.000000, -0.341000
2366.000000, -0.334600
2365.000000, -0.345800
2364.000000, -0.341300
2363.000000, -0.342400
2362.000000, -0.342800
2361.000000, -0.356400
2360.000000, -0.341100
2359.000000, -0.361000
2358.000000, -0.343400
2357.000000, -0.331800
2356.000000, -0.333000
2355.000000, -0.379500
2354.000000, -0.344500
2353.000000, -0.326000
2352.000000, -0.342300
2351.000000, -0.352000
2350.000000, -0.353200
2349.000000, -0.352600
2348.000000, -0.333000
2347.000000, -0.333900
2346.000000, -0.331800
2345.000000, -0.318700
2344.000000, -0.330200
2343.000000, -0.317000
2342.000000, -0.293200
2341.000000, -0.301600
2340.000000, -0.319000
2339.000000, -0.307400
2338.000000, -0.316700
2337.000000, -0.302600
2336.000000, -0.324300
2335.000000, -0.317100
2334.000000, -0.305800
2333.000000, -0.322400
2332.000000, -0.323800
2331.000000, -0.317600
2330.000000, -0.333400
2329.000000, -0.302400
2328.000000, -0.302800
2327.000000, -0.300300
2326.000000, -0.306100
2325.000000, -0.303900
2324.000000, -0.316600
2323.000000, -0.265400
2322.000000, -0.289800
2321.000000, -0.255600
2320.000000, -0.277000
2319.000000, -0.276700
2318.000000, -0.305100
2317.000000, -0.297500
2316.000000, -0.275200
2315.000000, -0.274400
2314.000000, -0.301200
2313.000000, -0.265400
2312.000000, -0.272500
2311.000000, -0.261700
2310.000000, -0.291800
2309.000000, -0.276500
2308.000000, -0.258400
2307.000000, -0.294800
2306.000000, -0.242100
2305.000000, -0.304500
2304.000000, -0.252700
2303.000000, -0.264000
2302.000000, -0.267000
2301.000000, -0.276300
2300.000000, -0.268300
2299.000000, -0.281400
2298.000000, -0.255500
2297.000000, -0.272400
2296.000000, -0.257600
2295.000000, -0.266600
2294.000000, -0.230700
2293.000000, -0.262200
2292.000000, -0.246300
2291.000000, -0.252600
2290.000000, -0.260400
2289.000000, -0.266000
2288.000000, -0.238200
2287.000000, -0.243800
2286.000000, -0.226500
2285.000000, -0.253600
2284.000000, -0.240900
2283.000000, -0.233500
2282.000000, -0.217600
2281.000000, -0.290100
2280.000000, -0.227500
2279.000000, -0.242600
2278.000000, -0.252000
2277.000000, -0.243900
2276.000000, -0.222600
2275.000000, -0.244900
2274.000000, -0.225000
2273.000000, -0.231800
2272.000000, -0.210700
2271.000000, -0.259000
2270.000000, -0.233300
2269.000000, -0.201900
2268.000000, -0.238900
2267.000000, -0.239200
2266.000000, -0.204200
2265.000000, -0.221400
2264.000000, -0.210400
2263.000000, -0.219900
2262.000000, -0.215700
2261.000000, -0.209100
2260.000000, -0.219300
2259.000000, -0.214100
2258.000000, -0.188700
2257.000000, -0.200800
2256.000000, -0.218700
2255.000000, -0.207800
2254.000000, -0.210200
2253.000000, -0.223400
2252.000000, -0.186500
2251.000000, -0.218700
2250.000000, -0.206100
2249.000000, -0.196500
2248.000000, -0.194400
2247.000000, -0.205400
2246.000000, -0.198800
2245.000000, -0.206800
2244.000000, -0.191900
2243.000000, -0.179900
2242.000000, -0.182400
2241.000000, -0.190800
2240.000000, -0.181200
2239.000000, -0.190000
2238.000000, -0.181700
2237.000000, -0.180600
2236.000000, -0.193500
2235.000000, -0.210100
2234.000000, -0.192900
2233.000000, -0.185600
2232.000000, -0.179000
2231.000000, -0.205700
2230.000000, -0.194800
2229.000000, -0.192800
2228.000000, -0.194400
2227.000000, -0.188800
2226.000000, -0.180800
2225.000000, -0.202400
2224.000000, -0.183900
2223.000000, -0.175500
2222.000000, -0.172000
2221.000000, -0.178500
2220.000000, -0.161100
2219.000000, -0.182800
2218.000000, -0.182500
2217.000000, -0.170200
2216.000000, -0.185200
2215.000000, -0.192000
2214.000000, -0.183300
2213.000000, -0.165500
2212.000000, -0.168800
2211.000000, -0.175700
2210.000000, -0.169500
2209.000000, -0.189000
2208.000000, -0.180000
2207.000000, -0.178500
2206.000000, -0.170800
2205.000000, -0.177100
2204.000000, -0.181900
2203.000000, -0.181300
2202.000000, -0.156000
2201.000000, -0.162600
2200.000000, -0.173800
2199.000000, -0.164300
2198.000000, -0.155300
2197.000000, -0.177400
2196.000000, -0.172900
2195.000000, -0.166000
2194.000000, -0.165900
2193.000000, -0.173000
2192.000000, -0.167000
2191.000000, -0.175700
2190.000000, -0.168400
2189.000000, -0.167400
2188.000000, -0.170200
2187.000000, -0.167000
2186.000000, -0.167000
2185.000000, -0.172100
2184.000000, -0.169600
2183.000000, -0.164200
2182.000000, -0.162000
2181.000000, -0.163700
2180.000000, -0.154600
2179.000000, -0.152200
2178.000000, -0.150300
2177.000000, -0.158800
2176.000000, -0.161700
2175.000000, -0.166300
2174.000000, -0.162900
2173.000000, -0.164600
2172.000000, -0.159800
2171.000000, -0.155800
2170.000000, -0.167500
2169.000000, -0.168500
2168.000000, -0.158700
2167.000000, -0.156000
2166.000000, -0.150600
2165.000000, -0.148100
2164.000000, -0.159200
2163.000000, -0.163500
2162.000000, -0.163400
2161.000000, -0.159800
2160.000000, -0.149000
2159.000000, -0.149400
2158.000000, -0.156800
2157.000000, -0.151400
2156.000000, -0.152900
2155.000000, -0.164900
2154.000000, -0.167000
2153.000000, -0.159500
2152.000000, -0.142700
2151.000000, -0.144600
2150.000000, -0.152800
2149.000000, -0.159400
2148.000000, -0.156100
2147.000000, -0.154700
2146.000000, -0.153600
2145.000000, -0.142200
2144.000000, -0.138700
2143.000000, -0.148900
2142.000000, -0.151500
2141.000000, -0.140200
2140.000000, -0.147300
2139.000000, -0.145300
2138.000000, -0.142100
2137.000000, -0.139200
2136.000000, -0.143500
2135.000000, -0.136800
2134.000000, -0.140700
2133.000000, -0.140700
2132.000000, -0.147200
2131.000000, -0.148000
2130.000000, -0.144200
2129.000000, -0.133000
2128.000000, -0.137700
2127.000000, -0.131500
2126.000000, -0.136900
2125.000000, -0.134400
2124.000000, -0.133900
2123.000000, -0.135200
2122.000000, -0.136900
2121.000000, -0.129100
2120.000000, -0.129100
2119.000000, -0.130100
2118.000000, -0.136400
2117.000000, -0.125100
2116.000000, -0.126900
2115.000000, -0.126500
2114.000000, -0.133700
2113.000000, -0.126900
2112.000000, -0.135000
2111.000000, -0.124000
2110.000000, -0.124600
2109.000000, -0.124000
2108.000000, -0.133800
2107.000000, -0.125300
2106.000000, -0.125200
2105.000000, -0.118600
2104.000000, -0.128100
2103.000000, -0.129600
2102.000000, -0.129100
2101.000000, -0.121400
2100.000000, -0.122300
2099.000000, -0.119300
2098.000000, -0.116000
2097.000000, -0.119500
2096.000000, -0.115600
2095.000000, -0.123200
2094.000000, -0.123200
2093.000000, -0.123400
2092.000000, -0.126900
2091.000000, -0.119600
2090.000000, -0.103100
2089.000000, -0.099500
2088.000000, -0.115300
2087.000000, -0.112300
2086.000000, -0.111800
2085.000000, -0.109400
2084.000000, -0.117600
2083.000000, -0.124900
2082.000000, -0.111500
2081.000000, -0.114100
2080.000000, -0.116800
2079.000000, -0.104600
2078.000000, -0.107300
2077.000000, -0.106100
2076.000000, -0.110900
2075.000000, -0.112100
2074.000000, -0.109200
2073.000000, -0.108300
2072.000000, -0.102000
2071.000000, -0.098400
2070.000000, -0.101800
2069.000000, -0.112500
2068.000000, -0.108600
2067.000000, -0.099600
2066.000000, -0.100400
2065.000000, -0.095700
2064.000000, -0.103700
2063.000000, -0.099400
2062.000000, -0.100000
2061.000000, -0.096600
2060.000000, -0.097800
2059.000000, -0.097600
2058.000000, -0.101400
2057.000000, -0.098000
2056.000000, -0.093800
2055.000000, -0.094500
2054.000000, -0.094900
2053.000000, -0.089800
2052.000000, -0.098900
2051.000000, -0.094500
2050.000000, -0.100800
2049.000000, -0.088000
2048.000000, -0.094300
2047.000000, -0.098500
2046.000000, -0.089100
2045.000000, -0.093000
2044.000000, -0.093900
2043.000000, -0.097000
2042.000000, -0.091500
2041.000000, -0.086000
2040.000000, -0.088800
2039.000000, -0.094600
2038.000000, -0.086500
2037.000000, -0.082800
2036.000000, -0.088900
2035.000000, -0.095300
2034.000000, -0.087600
2033.000000, -0.086100
2032.000000, -0.080600
2031.000000, -0.093600
2030.000000, -0.088200
2029.000000, -0.083500
2028.000000, -0.089300
2027.000000, -0.091300
2026.000000, -0.081100
2025.000000, -0.082300
2024.000000, -0.086200
2023.000000, -0.083300
2022.000000, -0.087700
2021.000000, -0.080400
2020.000000, -0.074800
2019.000000, -0.080200
2018.000000, -0.079000
2017.000000, -0.074200
2016.000000, -0.088800
2015.000000, -0.081900
2014.000000, -0.079300
2013.000000, -0.072200
2012.000000, -0.086100
2011.000000, -0.081600
2010.000000, -0.079400
2009.000000, -0.072300
2008.000000, -0.079600
2007.000000, -0.079900
2006.000000, -0.081800
2005.000000, -0.074900
2004.000000, -0.077200
2003.000000, -0.077300
2002.000000, -0.077000
2001.000000, -0.074000
2000.000000, -0.080100
1999.000000, -0.077600
1998.000000, -0.073700
1997.000000, -0.074300
1996.000000, -0.069100
1995.000000, -0.075000
1994.000000, -0.080900
1993.000000, -0.075500
1992.000000, -0.077600
1991.000000, -0.080300
1990.000000, -0.074400
1989.000000, -0.075900
1988.000000, -0.074000
1987.000000, -0.073900
1986.000000, -0.076100
1985.000000, -0.080600
1984.000000, -0.074500
1983.000000, -0.074100
1982.000000, -0.079500
1981.000000, -0.076900
1980.000000, -0.076700
1979.000000, -0.078800
1978.000000, -0.079800
1977.000000, -0.080100
1976.000000, -0.076600
1975.000000, -0.078300
1974.000000, -0.076800
1973.000000, -0.076700
1972.000000, -0.087900
1971.000000, -0.081600
1970.000000, -0.075900
1969.000000, -0.079300
1968.000000, -0.079300
1967.000000, -0.077100
1966.000000, -0.079000
1965.000000, -0.081300
1964.000000, -0.084800
1963.000000, -0.082000
1962.000000, -0.086900
1961.000000, -0.090400
1960.000000, -0.090400
1959.000000, -0.085700
1958.000000, -0.088000
1957.000000, -0.089400
1956.000000, -0.090400
1955.000000, -0.093900
1954.000000, -0.096600
1953.000000, -0.092700
1952.000000, -0.094900
1951.000000, -0.098300
1950.000000, -0.098600
1949.000000, -0.101000
1948.000000, -0.108800
1947.000000, -0.105700
1946.000000, -0.102200
1945.000000, -0.099100
1944.000000, -0.105100
1943.000000, -0.106400
1942.000000, -0.107300
1941.000000, -0.110100
1940.000000, -0.116400
1939.000000, -0.114100
1938.000000, -0.117100
1937.000000, -0.123500
1936.000000, -0.126700
1935.000000, -0.117900
1934.000000, -0.124000
1933.000000, -0.132400
1932.000000, -0.124900
1931.000000, -0.125800
1930.000000, -0.133000
1929.000000, -0.126300
1928.000000, -0.123400
1927.000000, -0.125100
1926.000000, -0.132400
1925.000000, -0.141500
1924.000000, -0.145300
1923.000000, -0.140000
1922.000000, -0.135200
1921.000000, -0.141900
1920.000000, -0.138000
1919.000000, -0.134600
1918.000000, -0.144900
1917.000000, -0.143800
1916.000000, -0.135400
1915.000000, -0.143600
1914.000000, -0.145800
1913.000000, -0.149600
1912.000000, -0.153900
1911.000000, -0.143300
1910.000000, -0.139800
1909.000000, -0.150900
1908.000000, -0.154000
1907.000000, -0.151600
1906.000000, -0.142700
1905.000000, -0.134300
1904.000000, -0.138200
1903.000000, -0.141200
1902.000000, -0.135300
1901.000000, -0.129700
1900.000000, -0.133500
1899.000000, -0.134400
1898.000000, -0.132600
1897.000000, -0.131200
1896.000000, -0.129000
1895.000000, -0.131100
1894.000000, -0.124800
1893.000000, -0.118600
1892.000000, -0.114800
1891.000000, -0.117800
1890.000000, -0.121700
1889.000000, -0.126500
1888.000000, -0.120700
1887.000000, -0.118100
1886.000000, -0.117400
1885.000000, -0.117900
1884.000000, -0.114300
1883.000000, -0.114800
1882.000000, -0.111400
1881.000000, -0.115600
1880.000000, -0.116900
1879.000000, -0.123000
1878.000000, -0.117800
1877.000000, -0.112100
1876.000000, -0.109900
1875.000000, -0.110800
1874.000000, -0.117500
1873.000000, -0.123800
1872.000000, -0.120900
1871.000000, -0.117200
1870.000000, -0.110700
1869.000000, -0.118800
1868.000000, -0.112900
1867.000000, -0.113700
1866.000000, -0.109300
1865.000000, -0.108900
1864.000000, -0.112700
1863.000000, -0.110200
1862.000000, -0.104400
1861.000000, -0.110600
1860.000000, -0.101700
1859.000000, -0.108900
1858.000000, -0.103600
1857.000000, -0.103200
1856.000000, -0.106600
1855.000000, -0.097800
1854.000000, -0.091400
1853.000000, -0.105100
1852.000000, -0.104000
1851.000000, -0.105100
1850.000000, -0.099100
1849.000000, -0.097300
1848.000000, -0.098000
1847.000000, -0.101900
1846.000000, -0.101800
1845.000000, -0.106800
1844.000000, -0.102100
1843.000000, -0.102500
1842.000000, -0.093500
1841.000000, -0.096800
1840.000000, -0.104100
1839.000000, -0.101600
1838.000000, -0.094400
1837.000000, -0.092500
1836.000000, -0.098000
1835.000000, -0.097800
1834.000000, -0.095700
1833.000000, -0.089100
1832.000000, -0.090400
1831.000000, -0.091000
1830.000000, -0.091000
1829.000000, -0.087400
1828.000000, -0.084200
1827.000000, -0.089200
1826.000000, -0.091200
1825.000000, -0.089400
1824.000000, -0.088600
1823.000000, -0.083300
1822.000000, -0.084900
1821.000000, -0.079800
1820.000000, -0.083000
1819.000000, -0.075700
1818.000000, -0.078300
1817.000000, -0.080300
1816.000000, -0.076900
1815.000000, -0.074900
1814.000000, -0.080100
1813.000000, -0.081100
1812.000000, -0.078600
1811.000000, -0.073300
1810.000000, -0.073900
1809.000000, -0.074100
1808.000000, -0.060300
1807.000000, -0.082100
1806.000000, -0.071600
1805.000000, -0.073600
1804.000000, -0.079500
1803.000000, -0.080600
1802.000000, -0.064900
1801.000000, -0.075900
1800.000000, -0.081400
1799.000000, -0.068000
1798.000000, -0.067200
1797.000000, -0.076500
1796.000000, -0.080700
1795.000000, -0.075700
1794.000000, -0.077000
1793.000000, -0.068600
1792.000000, -0.069100
1791.000000, -0.065000
1790.000000, -0.062200
1789.000000, -0.072100
1788.000000, -0.070800
1787.000000, -0.097600
1786.000000, -0.070100
1785.000000, -0.075600
1784.000000, -0.082200
1783.000000, -0.075300
1782.000000, -0.078500
1781.000000, -0.087100
1780.000000, -0.074000
1779.000000, -0.078700
1778.000000, -0.070000
1777.000000, -0.084200
1776.000000, -0.082100
1775.000000, -0.066500
1774.000000, -0.061800
1773.000000, -0.072300
1772.000000, -0.087200
1771.000000, -0.075600
1770.000000, -0.083000
1769.000000, -0.081500
1768.000000, -0.072700
1767.000000, -0.089800
1766.000000, -0.069000
1765.000000, -0.071800
1764.000000, -0.060600
1763.000000, -0.086800
1762.000000, -0.080600
1761.000000, -0.091000
1760.000000, -0.067800
1759.000000, -0.077900
1758.000000, -0.079900
1757.000000, -0.077200
1756.000000, -0.075100
1755.000000, -0.076400
1754.000000, -0.058200
1753.000000, -0.072000
1752.000000, -0.082700
1751.000000, -0.087900
1750.000000, -0.072600
1749.000000, -0.083900
1748.000000, -0.081900
1747.000000, -0.074500
1746.000000, -0.075800
1745.000000, -0.078700
1744.000000, -0.071200
1743.000000, -0.084900
1742.000000, -0.078800
1741.000000, -0.072200
1740.000000, -0.075900
1739.000000, -0.074600
1738.000000, -0.066300
1737.000000, -0.068100
1736.000000, -0.065400
1735.000000, -0.076200
1734.000000, -0.074700
1733.000000, -0.078500
1732.000000, -0.074800
1731.000000, -0.078400
1730.000000, -0.073400
1729.000000, -0.074800
1728.000000, -0.068500
1727.000000, -0.063600
1726.000000, -0.068100
1725.000000, -0.067100
1724.000000, -0.078500
1723.000000, -0.074700
1722.000000, -0.064300
1721.000000, -0.079900
1720.000000, -0.079100
1719.000000, -0.076300
1718.000000, -0.078200
1717.000000, -0.067300
1716.000000, -0.066000
1715.000000, -0.064700
1714.000000, -0.071100
1713.000000, -0.079100
1712.000000, -0.069700
1711.000000, -0.065200
1710.000000, -0.069600
1709.000000, -0.062000
1708.000000, -0.067200
1707.000000, -0.067100
1706.000000, -0.070900
1705.000000, -0.072500
1704.000000, -0.067300
1703.000000, -0.066200
1702.000000, -0.057900
1701.000000, -0.063100
1700.000000, -0.068100
1699.000000, -0.059400
1698.000000, -0.064200
1697.000000, -0.066600
1696.000000, -0.064700
1695.000000, -0.067600
1694.000000, -0.064000
1693.000000, -0.061300
1692.000000, -0.066300
1691.000000, -0.062600
1690.000000, -0.065200
1689.000000, -0.070400
1688.000000, -0.073300
1687.000000, -0.062100
1686.000000, -0.060800
1685.000000, -0.063800
1684.000000, -0.064400
1683.000000, -0.067100
1682.000000, -0.064800
1681.000000, -0.053500
1680.000000, -0.053300
1679.000000, -0.065500
1678.000000, -0.062200
1677.000000, -0.062300
1676.000000, -0.062700
1675.000000, -0.065200
1674.000000, -0.064600
1673.000000, -0.065800
1672.000000, -0.057600
1671.000000, -0.058400
1670.000000, -0.067900
1669.000000, -0.071700
1668.000000, -0.069400
1667.000000, -0.069200
1666.000000, -0.060500
1665.000000, -0.062300
1664.000000, -0.066300
1663.000000, -0.068800
1662.000000, -0.067200
1661.000000, -0.060000
1660.000000, -0.058500
1659.000000, -0.065500
1658.000000, -0.064400
1657.000000, -0.060600
1656.000000, -0.058400
1655.000000, -0.054800
1654.000000, -0.059500
1653.000000, -0.063400
1652.000000, -0.065400
1651.000000, -0.067000
1650.000000, -0.062600
1649.000000, -0.063500
1648.000000, -0.063700
1647.000000, -0.060600
1646.000000, -0.065300
1645.000000, -0.069900
1644.000000, -0.062600
1643.000000, -0.057000
1642.000000, -0.055600
1641.000000, -0.059100
1640.000000, -0.063900
1639.000000, -0.059500
1638.000000, -0.061000
1637.000000, -0.060600
1636.000000, -0.056200
1635.000000, -0.056900
1634.000000, -0.062800
1633.000000, -0.064700
1632.000000, -0.061400
1631.000000, -0.057100
1630.000000, -0.057300
1629.000000, -0.063200
1628.000000, -0.068500
1627.000000, -0.056700
1626.000000, -0.056300
1625.000000, -0.061000
1624.000000, -0.062200
1623.000000, -0.060100
1622.000000, -0.059800
1621.000000, -0.055200
1620.000000, -0.058500
1619.000000, -0.061400
1618.000000, -0.061600
1617.000000, -0.061400
1616.000000, -0.057400
1615.000000, -0.051900
1614.000000, -0.061800
1613.000000, -0.066200
1612.000000, -0.055600
1611.000000, -0.057000
1610.000000, -0.056900
1609.000000, -0.059500
1608.000000, -0.060900
1607.000000, -0.058300
1606.000000, -0.062000
1605.000000, -0.050400
1604.000000, -0.051300
1603.000000, -0.051300
1602.000000, -0.058600
1601.000000, -0.057900
1600.000000, -0.051600
1599.000000, -0.054000
1598.000000, -0.061100
1597.000000, -0.057200
1596.000000, -0.055200
1595.000000, -0.053900
1594.000000, -0.062900
1593.000000, -0.056100
1592.000000, -0.049300
1591.000000, -0.047600
1590.000000, -0.042200
1589.000000, -0.052000
1588.000000, -0.054200
1587.000000, -0.054800
1586.000000, -0.056600
1585.000000, -0.058700
1584.000000, -0.052800
1583.000000, -0.052200
1582.000000, -0.056100
1581.000000, -0.048400
1580.000000, -0.055700
1579.000000, -0.053600
1578.000000, -0.055400
1577.000000, -0.052700
1576.000000, -0.050300
1575.000000, -0.050100
1574.000000, -0.054200
1573.000000, -0.060100
1572.000000, -0.053400
1571.000000, -0.053500
1570.000000, -0.060800
1569.000000, -0.048900
1568.000000, -0.057500
1567.000000, -0.051800
1566.000000, -0.043900
1565.000000, -0.050700
1564.000000, -0.049200
1563.000000, -0.054500
1562.000000, -0.056700
1561.000000, -0.050200
1560.000000, -0.045600
1559.000000, -0.049400
1558.000000, -0.056400
1557.000000, -0.046800
1556.000000, -0.052600
1555.000000, -0.047400
1554.000000, -0.052900
1553.000000, -0.050100
1552.000000, -0.052500
1551.000000, -0.051100
1550.000000, -0.052600
1549.000000, -0.051600
1548.000000, -0.054100
1547.000000, -0.047700
1546.000000, -0.049200
1545.000000, -0.042300
1544.000000, -0.051500
1543.000000, -0.054100
1542.000000, -0.054900
1541.000000, -0.051000
1540.000000, -0.059400
1539.000000, -0.051500
1538.000000, -0.047700
1537.000000, -0.047600
1536.000000, -0.049600
1535.000000, -0.043800
1534.000000, -0.053500
1533.000000, -0.050200
1532.000000, -0.048400
1531.000000, -0.045200
1530.000000, -0.048500
1529.000000, -0.054800
1528.000000, -0.052600
1527.000000, -0.057200
1526.000000, -0.051400
1525.000000, -0.048600
1524.000000, -0.047000
1523.000000, -0.053400
1522.000000, -0.053200
1521.000000, -0.046700
1520.000000, -0.056900
1519.000000, -0.051400
1518.000000, -0.057400
1517.000000, -0.045500
1516.000000, -0.051900
1515.000000, -0.051200
1514.000000, -0.052800
1513.000000, -0.051300
1512.000000, -0.050500
1511.000000, -0.050100
1510.000000, -0.046700
1509.000000, -0.052200
1508.000000, -0.050700
1507.000000, -0.046500
1506.000000, -0.047000
1505.000000, -0.055700
1504.000000, -0.041900
1503.000000, -0.050500
1502.000000, -0.053100
1501.000000, -0.050300
1500.000000, -0.044700
1499.000000, -0.042100
1498.000000, -0.045600
1497.000000, -0.040500
1496.000000, -0.050900
1495.000000, -0.052700
1494.000000, -0.045900
1493.000000, -0.051700
1492.000000, -0.048100
1491.000000, -0.050800
1490.000000, -0.047100
1489.000000, -0.053900
1488.000000, -0.046500
1487.000000, -0.047700
1486.000000, -0.041400
1485.000000, -0.043000
1484.000000, -0.041600
1483.000000, -0.054300
1482.000000, -0.051000
1481.000000, -0.049300
1480.000000, -0.045700
1479.000000, -0.046800
1478.000000, -0.046600
1477.000000, -0.042400
1476.000000, -0.042400
1475.000000, -0.047000
1474.000000, -0.049700
1473.000000, -0.051500
1472.000000, -0.043400
1471.000000, -0.045000
1470.000000, -0.049000
1469.000000, -0.050500
1468.000000, -0.049800
1467.000000, -0.042200
1466.000000, -0.050000
1465.000000, -0.045500
1464.000000, -0.045500
1463.000000, -0.045300
1462.000000, -0.044700
1461.000000, -0.041900
1460.000000, -0.047000
1459.000000, -0.042500
1458.000000, -0.047900
1457.000000, -0.046400
1456.000000, -0.041500
1455.000000, -0.043600
1454.000000, -0.045100
1453.000000, -0.046200
1452.000000, -0.045100
1451.000000, -0.042700
1450.000000, -0.049100
1449.000000, -0.044900
1448.000000, -0.041900
1447.000000, -0.045900
1446.000000, -0.048600
1445.000000, -0.043800
1444.000000, -0.040700
1443.000000, -0.045700
1442.000000, -0.050700
1441.000000, -0.045800
1440.000000, -0.047600
1439.000000, -0.047800
1438.000000, -0.043100
1437.000000, -0.041700
1436.000000, -0.042400
1435.000000, -0.043000
1434.000000, -0.042600
1433.000000, -0.043200
1432.000000, -0.045500
1431.000000, -0.045600
1430.000000, -0.044400
1429.000000, -0.045100
1428.000000, -0.042000
1427.000000, -0.044600
1426.000000, -0.048300
1425.000000, -0.048800
1424.000000, -0.046000
1423.000000, -0.038700
1422.000000, -0.046800
1421.000000, -0.051800
1420.000000, -0.049300
1419.000000, -0.045800
1418.000000, -0.043800
1417.000000, -0.043900
1416.000000, -0.048000
1415.000000, -0.049900
1414.000000, -0.048000
1413.000000, -0.046600
1412.000000, -0.044700
1411.000000, -0.049200
1410.000000, -0.047400
1409.000000, -0.043900
1408.000000, -0.046700
1407.000000, -0.048500
1406.000000, -0.046700
1405.000000, -0.050800
1404.000000, -0.053200
1403.000000, -0.046200
1402.000000, -0.045100
1401.000000, -0.045100
1400.000000, -0.046000
1399.000000, -0.047900
1398.000000, -0.045900
1397.000000, -0.044100
1396.000000, -0.047700
1395.000000, -0.052500
1394.000000, -0.048700
1393.000000, -0.047600
1392.000000, -0.046400
1391.000000, -0.044300
1390.000000, -0.043500
1389.000000, -0.043100
1388.000000, -0.045300
1387.000000, -0.044000
1386.000000, -0.046100
1385.000000, -0.048100
1384.000000, -0.045700
1383.000000, -0.049200
1382.000000, -0.049200
1381.000000, -0.048400
1380.000000, -0.046700
1379.000000, -0.044400
1378.000000, -0.045000
1377.000000, -0.050100
1376.000000, -0.049500
1375.000000, -0.042600
1374.000000, -0.041700
1373.000000, -0.044500
1372.000000, -0.048100
1371.000000, -0.045900
1370.000000, -0.043400
1369.000000, -0.049100
1368.000000, -0.044800
1367.000000, -0.045400
1366.000000, -0.046700
1365.000000, -0.046500
1364.000000, -0.043300
1363.000000, -0.047100
1362.000000, -0.048800
1361.000000, -0.041100
1360.000000, -0.041300
1359.000000, -0.045300
1358.000000, -0.047700
1357.000000, -0.047400
1356.000000, -0.044400
1355.000000, -0.043300
1354.000000, -0.042100
1353.000000, -0.040800
1352.000000, -0.043100
1351.000000, -0.043000
1350.000000, -0.039400
1349.000000, -0.040700
1348.000000, -0.046000
1347.000000, -0.044500
1346.000000, -0.041400
1345.000000, -0.041900
1344.000000, -0.041100
1343.000000, -0.040700
1342.000000, -0.041000
1341.000000, -0.040500
1340.000000, -0.039900
1339.000000, -0.038100
1338.000000, -0.041000
1337.000000, -0.039400
1336.000000, -0.038500
1335.000000, -0.036900
1334.000000, -0.036800
1333.000000, -0.040000
1332.000000, -0.038300
1331.000000, -0.040100
1330.000000, -0.042000
1329.000000, -0.037900
1328.000000, -0.035600
1327.000000, -0.043000
1326.000000, -0.045000
1325.000000, -0.039300
1324.000000, -0.039800
1323.000000, -0.043700
1322.000000, -0.038100
1321.000000, -0.039700
1320.000000, -0.040200
1319.000000, -0.039800
1318.000000, -0.042800
1317.000000, -0.042900
1316.000000, -0.039200
1315.000000, -0.038300
1314.000000, -0.042000
1313.000000, -0.038900
1312.000000, -0.041700
1311.000000, -0.037800
1310.000000, -0.042500
1309.000000, -0.040200
1308.000000, -0.037300
1307.000000, -0.043200
1306.000000, -0.037200
1305.000000, -0.043900
1304.000000, -0.037600
1303.000000, -0.041400
1302.000000, -0.038600
1301.000000, -0.040100
1300.000000, -0.038800
1299.000000, -0.037600
1298.000000, -0.042500
1297.000000, -0.040300
1296.000000, -0.035400
1295.000000, -0.040500
1294.000000, -0.038100
1293.000000, -0.043600
1292.000000, -0.040100
1291.000000, -0.042300
1290.000000, -0.036000
1289.000000, -0.036000
1288.000000, -0.037000
1287.000000, -0.040600
1286.000000, -0.038400
1285.000000, -0.037300
1284.000000, -0.036700
1283.000000, -0.041600
1282.000000, -0.033800
1281.000000, -0.036900
1280.000000, -0.042300
1279.000000, -0.037200
1278.000000, -0.035000
1277.000000, -0.032000
1276.000000, -0.031000
1275.000000, -0.039800
1274.000000, -0.036300
1273.000000, -0.037000
1272.000000, -0.036800
1271.000000, -0.040700
1270.000000, -0.043000
1269.000000, -0.038800
1268.000000, -0.038100
1267.000000, -0.037000
1266.000000, -0.041700
1265.000000, -0.037400
1264.000000, -0.038000
1263.000000, -0.035400
1262.000000, -0.042600
1261.000000, -0.034300
1260.000000, -0.038800
1259.000000, -0.037800
1258.000000, -0.035800
1257.000000, -0.042500
1256.000000, -0.035000
1255.000000, -0.039000
1254.000000, -0.035100
1253.000000, -0.031900
1252.000000, -0.037000
1251.000000, -0.039600
1250.000000, -0.036300
1249.000000, -0.038700
1248.000000, -0.040500
1247.000000, -0.035300
1246.000000, -0.036400
1245.000000, -0.038000
1244.000000, -0.041500
1243.000000, -0.035300
1242.000000, -0.038800
1241.000000, -0.037300
1240.000000, -0.038700
1239.000000, -0.035200
1238.000000, -0.036500
1237.000000, -0.037300
1236.000000, -0.042100
1235.000000, -0.040400
1234.000000, -0.035800
1233.000000, -0.034300
1232.000000, -0.040300
1231.000000, -0.040000
1230.000000, -0.039400
1229.000000, -0.040800
1228.000000, -0.041900
1227.000000, -0.041000
1226.000000, -0.040900
1225.000000, -0.039500
1224.000000, -0.037900
1223.000000, -0.038800
1222.000000, -0.038900
1221.000000, -0.043300
1220.000000, -0.040400
1219.000000, -0.035500
1218.000000, -0.034100
1217.000000, -0.038400
1216.000000, -0.037000
1215.000000, -0.037700
1214.000000, -0.041500
1213.000000, -0.039200
1212.000000, -0.040900
1211.000000, -0.039400
1210.000000, -0.036500
1209.000000, -0.037200
1208.000000, -0.037800
1207.000000, -0.040900
1206.000000, -0.037700
1205.000000, -0.035700
1204.000000, -0.037600
1203.000000, -0.038700
1202.000000, -0.036100
1201.000000, -0.036200
1200.000000, -0.035600
1199.000000, -0.038100
1198.000000, -0.037500
1197.000000, -0.038100
1196.000000, -0.037200
1195.000000, -0.040700
1194.000000, -0.039500
1193.000000, -0.036700
1192.000000, -0.034600
1191.000000, -0.036800
1190.000000, -0.031900
1189.000000, -0.033600
1188.000000, -0.038100
1187.000000, -0.036000
1186.000000, -0.036600
1185.000000, -0.037700
1184.000000, -0.038500
1183.000000, -0.036900
1182.000000, -0.037400
1181.000000, -0.037700
1180.000000, -0.039300
1179.000000, -0.039200
1178.000000, -0.037800
1177.000000, -0.037400
1176.000000, -0.037400
1175.000000, -0.036400
1174.000000, -0.037200
1173.000000, -0.039600
1172.000000, -0.036800
1171.000000, -0.038700
1170.000000, -0.039900
1169.000000, -0.040100
1168.000000, -0.036500
1167.000000, -0.037500
1166.000000, -0.038300
1165.000000, -0.038600
1164.000000, -0.038000
1163.000000, -0.036300
1162.000000, -0.036400
1161.000000, -0.038900
1160.000000, -0.038700
1159.000000, -0.037600
1158.000000, -0.040900
1157.000000, -0.042200
1156.000000, -0.037300
1155.000000, -0.036800
1154.000000, -0.038200
1153.000000, -0.039600
1152.000000, -0.037800
1151.000000, -0.035800
1150.000000, -0.037000
1149.000000, -0.038900
1148.000000, -0.038400
1147.000000, -0.039500
1146.000000, -0.041000
1145.000000, -0.038300
1144.000000, -0.034200
1143.000000, -0.034300
1142.000000, -0.037300
1141.000000, -0.039500
1140.000000, -0.039700
1139.000000, -0.038200
1138.000000, -0.036000
1137.000000, -0.037600
1136.000000, -0.039500
1135.000000, -0.041500
1134.000000, -0.041200
1133.000000, -0.036000
1132.000000, -0.034900
1131.000000, -0.035200
1130.000000, -0.034300
1129.000000, -0.036900
1128.000000, -0.040100
1127.000000, -0.038900
1126.000000, -0.040400
1125.000000, -0.040100
1124.000000, -0.036900
1123.000000, -0.039700
1122.000000, -0.040200
1121.000000, -0.040400
1120.000000, -0.037900
1119.000000, -0.037900
1118.000000, -0.036800
1117.000000, -0.038500
1116.000000, -0.040400
1115.000000, -0.037900
1114.000000, -0.037900
1113.000000, -0.037300
1112.000000, -0.038500
1111.000000, -0.041300
1110.000000, -0.040700
1109.000000, -0.039500
1108.000000, -0.036700
1107.000000, -0.038700
1106.000000, -0.039700
1105.000000, -0.036400
1104.000000, -0.037400
1103.000000, -0.038700
1102.000000, -0.038100
1101.000000, -0.041400
1100.000000, -0.041800
1099.000000, -0.037900
1098.000000, -0.039600
1097.000000, -0.042100
1096.000000, -0.040300
1095.000000, -0.038100
1094.000000, -0.041000
1093.000000, -0.039300
1092.000000, -0.041200
1091.000000, -0.041300
1090.000000, -0.040200
1089.000000, -0.037900
1088.000000, -0.038500
1087.000000, -0.036500
1086.000000, -0.043000
1085.000000, -0.039300
1084.000000, -0.041500
1083.000000, -0.041000
1082.000000, -0.036900
1081.000000, -0.038900
1080.000000, -0.046400
1079.000000, -0.036400
1078.000000, -0.032200
1077.000000, -0.033800
1076.000000, -0.038000
1075.000000, -0.040200
1074.000000, -0.048900
1073.000000, -0.042800
1072.000000, -0.040000
1071.000000, -0.037200
1070.000000, -0.046600
1069.000000, -0.044000
1068.000000, -0.048000
1067.000000, -0.038000
1066.000000, -0.041800
1065.000000, -0.038800
1064.000000, -0.044400
1063.000000, -0.044300
1062.000000, -0.041300
1061.000000, -0.037900
1060.000000, -0.038300
1059.000000, -0.040300
1058.000000, -0.047200
1057.000000, -0.039600
1056.000000, -0.038500
1055.000000, -0.043200
1054.000000, -0.045000
1053.000000, -0.041900
1052.000000, -0.040200
1051.000000, -0.043300
1050.000000, -0.042000
1049.000000, -0.043300
1048.000000, -0.041800
1047.000000, -0.043300
1046.000000, -0.040100
1045.000000, -0.040800
1044.000000, -0.039400
1043.000000, -0.049700
1042.000000, -0.042800
1041.000000, -0.038900
1040.000000, -0.045600
1039.000000, -0.047500
1038.000000, -0.043700
1037.000000, -0.041900
1036.000000, -0.042200
1035.000000, -0.044200
1034.000000, -0.041600
1033.000000, -0.041400
1032.000000, -0.046500
1031.000000, -0.042800
1030.000000, -0.038400
1029.000000, -0.050400
1028.000000, -0.044600
1027.000000, -0.045700
1026.000000, -0.042300
1025.000000, -0.045900
1024.000000, -0.047400
1023.000000, -0.043400
1022.000000, -0.048100
1021.000000, -0.042300
1020.000000, -0.047900
1019.000000, -0.046300
1018.000000, -0.045000
1017.000000, -0.050300
1016.000000, -0.044000
1015.000000, -0.043800
1014.000000, -0.048900
1013.000000, -0.046500
1012.000000, -0.050100
1011.000000, -0.039600
1010.000000, -0.051100
1009.000000, -0.046200
1008.000000, -0.052800
1007.000000, -0.043200
1006.000000, -0.049400
1005.000000, -0.046300
1004.000000, -0.054700
1003.000000, -0.049800
1002.000000, -0.052500
1001.000000, -0.040700
1000.000000, -0.052300
999.000000, -0.047600
998.000000, -0.050800
997.000000, -0.050900
996.000000, -0.050300
995.000000, -0.046700
994.000000, -0.046800
993.000000, -0.052100
992.000000, -0.049400
991.000000, -0.052000
990.000000, -0.057000
989.000000, -0.046800
988.000000, -0.054100
987.000000, -0.051400
986.000000, -0.056000
985.000000, -0.048800
984.000000, -0.050200
983.000000, -0.050900
982.000000, -0.053900
981.000000, -0.049100
980.000000, -0.058000
979.000000, -0.057800
978.000000, -0.052100
977.000000, -0.054600
976.000000, -0.057900
975.000000, -0.057500
974.000000, -0.052200
973.000000, -0.054100
972.000000, -0.059100
971.000000, -0.055200
970.000000, -0.058400
969.000000, -0.054800
968.000000, -0.062900
967.000000, -0.054600
966.000000, -0.059700
965.000000, -0.059200
964.000000, -0.069600
963.000000, -0.061700
962.000000, -0.065000
961.000000, -0.058100
960.000000, -0.061000
959.000000, -0.068400
958.000000, -0.065000
957.000000, -0.063700
956.000000, -0.067700
955.000000, -0.067200
954.000000, -0.067800
953.000000, -0.070100
952.000000, -0.059400
951.000000, -0.065900
950.000000, -0.073300
949.000000, -0.074600
948.000000, -0.067500
947.000000, -0.067600
946.000000, -0.067300
945.000000, -0.060100
944.000000, -0.075200
943.000000, -0.076500
942.000000, -0.069700
941.000000, -0.070900
940.000000, -0.074800
939.000000, -0.082600
938.000000, -0.074400
937.000000, -0.077400
936.000000, -0.084000
935.000000, -0.074700
934.000000, -0.077500
933.000000, -0.091400
932.000000, -0.092300
931.000000, -0.076100
930.000000, -0.087100
929.000000, -0.091600
928.000000, -0.094300
927.000000, -0.089100
926.000000, -0.086700
925.000000, -0.090000
924.000000, -0.093300
923.000000, -0.097700
922.000000, -0.093900
921.000000, -0.090300
920.000000, -0.092200
919.000000, -0.094400
918.000000, -0.101300
917.000000, -0.091800
916.000000, -0.106100
915.000000, -0.105300
914.000000, -0.114400
913.000000, -0.111100
912.000000, -0.103100
911.000000, -0.109800
910.000000, -0.115700
909.000000, -0.104300
908.000000, -0.113500
907.000000, -0.124400
906.000000, -0.120300
905.000000, -0.126600
904.000000, -0.139000
903.000000, -0.140700
902.000000, -0.137700
901.000000, -0.124900
900.000000, -0.145800
899.000000, -0.154900
898.000000, -0.152400
897.000000, -0.157800
896.000000, -0.154400
895.000000, -0.132700
894.000000, -0.155400
893.000000, -0.165000
892.000000, -0.158800
891.000000, -0.155800
890.000000, -0.154100
889.000000, -0.004500
888.000000, -0.003600
887.000000, -0.003500
886.000000, -0.004100
885.000000, -0.004400
884.000000, -0.004200
883.000000, -0.006000
882.000000, -0.003300
881.000000, -0.005400
880.000000, -0.004000
879.000000, -0.004700
878.000000, -0.004600
877.000000, -0.005000
876.000000, -0.004200
875.000000, -0.005000
874.000000, -0.003400
873.000000, -0.004400
872.000000, -0.004300
871.000000, -0.003200
870.000000, -0.003100
869.000000, -0.004900
868.000000, -0.003000
867.000000, -0.003200
866.000000, -0.002000
865.000000, -0.002900
864.000000, -0.000900
863.000000, -0.003700
862.000000, -0.003200
861.000000, -0.003400
860.000000, -0.001300
859.000000, -0.002300
858.000000, -0.004400
857.000000, -0.000700
856.000000, -0.003100
855.000000, -0.001400
854.000000, -0.002800
853.000000, -0.003900
852.000000, -0.003300
851.000000, -0.000800
850.000000, -0.002500
849.000000, -0.002000
848.000000, -0.001000
847.000000, -0.000500
846.000000, -0.001600
845.000000, -0.002300
844.000000, -0.003400
843.000000, -0.003400
842.000000, 0.000300
841.000000, -0.001800
840.000000, -0.001600
839.000000, -0.001800
838.000000, 0.000300
837.000000, -0.001300
836.000000, -0.002200
835.000000, -0.003500
834.000000, -0.003500
833.000000, -0.000600
832.000000, 0.000600
831.000000, -0.001200
830.000000, 0.000500
829.000000, -0.000300
828.000000, -0.001600
827.000000, -0.001300
826.000000, -0.000700
825.000000, -0.001500
824.000000, -0.003300
823.000000, -0.000400
822.000000, -0.001900
821.000000, -0.000800
820.000000, -0.003200
819.000000, -0.001400
818.000000, 0.000600
817.000000, -0.000100
816.000000, -0.001600
815.000000, -0.003000
814.000000, -0.002900
813.000000, 0.000200
812.000000, -0.001900
811.000000, -0.002300
810.000000, -0.002400
809.000000, -0.001300
808.000000, -0.002200
807.000000, -0.000200
806.000000, -0.001200
805.000000, -0.003700
804.000000, -0.004000
803.000000, -0.001400
802.000000, -0.001200
801.000000, -0.001600
800.000000, -0.003000
799.000000, -0.002700
798.000000, -0.002400
797.000000, -0.001500
796.000000, -0.002700
795.000000, -0.001200
794.000000, -0.000600
793.000000, -0.000100
792.000000, -0.001600
791.000000, -0.001500
790.000000, -0.003300
789.000000, -0.003200
788.000000, -0.002100
787.000000, -0.003600
786.000000, -0.002300
785.000000, -0.002500
784.000000, -0.002400
783.000000, -0.002300
782.000000, -0.001200
781.000000, -0.002600
780.000000, -0.004000
779.000000, -0.004100
778.000000, -0.002300
777.000000, -0.002300
776.000000, -0.002700
775.000000, -0.002800
774.000000, -0.002500
773.000000, -0.003000
772.000000, -0.003700
771.000000, -0.004400
770.000000, -0.004400
769.000000, -0.004000
768.000000, -0.003900
767.000000, -0.004200
766.000000, -0.004500
765.000000, -0.005700
764.000000, -0.004900
763.000000, -0.003600
762.000000, -0.003200
761.000000, -0.003600
760.000000, -0.004400
759.000000, -0.003800
758.000000, -0.003400
757.000000, -0.003400
756.000000, -0.003200
755.000000, -0.003800
754.000000, -0.004300
753.000000, -0.003600
752.000000, -0.004100
751.000000, -0.004900
750.000000, -0.004400
749.000000, -0.003900
748.000000, -0.003600
747.000000, -0.003700
746.000000, -0.004300
745.000000, -0.004000
744.000000, -0.003700
743.000000, -0.004400
742.000000, -0.005000
741.000000, -0.005100
740.000000, -0.004700
739.000000, -0.003700
738.000000, -0.004000
737.000000, -0.004200
736.000000, -0.004600
735.000000, -0.004100
734.000000, -0.003700
733.000000, -0.003700
732.000000, -0.004600
731.000000, -0.004800
730.000000, -0.003900
729.000000, -0.003500
728.000000, -0.004500
727.000000, -0.004700
726.000000, -0.005100
725.000000, -0.004400
724.000000, -0.003900
723.000000, -0.004400
722.000000, -0.004900
721.000000, -0.004900
720.000000, -0.004800
719.000000, -0.005200
718.000000, -0.004800
717.000000, -0.005300
716.000000, -0.005500
715.000000, -0.005500
714.000000, -0.005600
713.000000, -0.004900
712.000000, -0.004400
711.000000, -0.004900
710.000000, -0.005000
709.000000, -0.005200
708.000000, -0.004900
707.000000, -0.005300
706.000000, -0.005200
705.000000, -0.004800
704.000000, -0.004600
703.000000, -0.005200
702.000000, -0.005100
701.000000, -0.005300
700.000000, -0.004600
699.000000, -0.004500
698.000000, -0.005000
697.000000, -0.004900
696.000000, -0.004900
695.000000, -0.004700
694.000000, -0.004800
693.000000, -0.005400
692.000000, -0.005400
691.000000, -0.005100
690.000000, -0.005700
689.000000, -0.003600
688.000000, -0.004000
687.000000, -0.005000
686.000000, -0.005200
685.000000, -0.005300
684.000000, -0.005500
683.000000, -0.005400
682.000000, -0.004900
681.000000, -0.005200
680.000000, -0.006000
679.000000, -0.005700
678.000000, -0.006100
677.000000, -0.005600
676.000000, -0.006200
675.000000, -0.005100
674.000000, -0.004600
673.000000, -0.004900
672.000000, -0.005000
671.000000, -0.004700
670.000000, -0.005600
669.000000, -0.005100
668.000000, -0.005500
667.000000, -0.005400
666.000000, -0.005800
665.000000, -0.005800
664.000000, -0.005800
663.000000, -0.006000
662.000000, -0.005700
661.000000, -0.005200
660.000000, -0.005600
659.000000, -0.004900
658.000000, -0.005000
657.000000, -0.005100
656.000000, -0.005900
655.000000, -0.005200
654.000000, -0.005000
653.000000, -0.006000
652.000000, -0.005400
651.000000, -0.004800
650.000000, -0.004700
649.000000, -0.005800
648.000000, -0.005800
647.000000, -0.006000
646.000000, -0.005300
645.000000, -0.005500
644.000000, -0.005400
643.000000, -0.005200
642.000000, -0.005500
641.000000, -0.005300
640.000000, -0.004900
639.000000, -0.005800
638.000000, -0.005600
637.000000, -0.005000
636.000000, -0.005200
635.000000, -0.005300
634.000000, -0.004800
633.000000, -0.005600
632.000000, -0.005000
631.000000, -0.005400
630.000000, -0.005800
629.000000, -0.005000
628.000000, -0.005200
627.000000, -0.004800
626.000000, -0.005400
625.000000, -0.005400
624.000000, -0.004500
623.000000, -0.005900
622.000000, -0.005900
621.000000, -0.005900
620.000000, -0.005100
619.000000, -0.006100
618.000000, -0.005000
617.000000, -0.006100
616.000000, -0.005500
615.000000, -0.006500
614.000000, -0.005600
613.000000, -0.005600
612.000000, -0.005700
611.000000, -0.005600
610.000000, -0.004800
609.000000, -0.006700
608.000000, -0.005200
607.000000, -0.005200
606.000000, -0.004700
605.000000, -0.005400
604.000000, -0.005400
603.000000, -0.006200
602.000000, -0.005400
601.000000, -0.007000
600.000000, -0.004900
599.000000, -0.006100
598.000000, -0.004600
597.000000, -0.005600
596.000000, -0.005100
595.000000, -0.005300
594.000000, -0.005500
593.000000, -0.005700
592.000000, -0.005500
591.000000, -0.005500
590.000000, -0.005400
589.000000, -0.005900
588.000000, -0.006100
587.000000, -0.005800
586.000000, -0.005600
585.000000, -0.005600
584.000000, -0.006100
583.000000, -0.006300
582.000000, -0.005800
581.000000, -0.005900
580.000000, -0.005200
579.000000, -0.006000
578.000000, -0.005600
577.000000, -0.005500
576.000000, -0.005100
575.000000, -0.005900
574.000000, -0.005700
573.000000, -0.005300
572.000000, -0.005600
571.000000, -0.005400
570.000000, -0.005800
569.000000, -0.005900
568.000000, -0.005500
567.000000, -0.006100
566.000000, -0.005900
565.000000, -0.005900
564.000000, -0.005500
563.000000, -0.005500
562.000000, -0.006100
561.000000, -0.005100
560.000000, -0.005300
559.000000, -0.005500
558.000000, -0.005500
557.000000, -0.006200
556.000000, -0.005600
555.000000, -0.006000
554.000000, -0.005400
553.000000, -0.006000
552.000000, -0.005800
551.000000, -0.006000
550.000000, -0.005600
549.000000, -0.006300
548.000000, -0.005800
547.000000, -0.006300
546.000000, -0.005400
545.000000, -0.006400
544.000000, -0.006000
543.000000, -0.006500
542.000000, -0.006000
541.000000, -0.006500
540.000000, -0.006200
539.000000, -0.006300
538.000000, -0.006200
537.000000, -0.006200
536.000000, -0.006300
535.000000, -0.006100
534.000000, -0.005800
533.000000, -0.006700
532.000000, -0.006800
531.000000, -0.006200
530.000000, -0.005700
529.000000, -0.006600
528.000000, -0.006400
527.000000, -0.006100
526.000000, -0.005800
525.000000, -0.006400
524.000000, -0.006200
523.000000, -0.006300
522.000000, -0.006100
521.000000, -0.006200
520.000000, -0.006500
519.000000, -0.006900
518.000000, -0.006400
517.000000, -0.006300
516.000000, -0.006200
515.000000, -0.006300
514.000000, -0.006400
513.000000, -0.006600
512.000000, -0.006400
511.000000, -0.006100
510.000000, -0.006300
509.000000, -0.006000
508.000000, -0.005700
507.000000, -0.006300
506.000000, -0.006300
505.000000, -0.006200
504.000000, -0.006800
503.000000, -0.006500
502.000000, -0.007000
501.000000, -0.006500
500.000000, -0.005500
499.000000, -0.005500
498.000000, -0.005800
497.000000, -0.006400
496.000000, -0.006200
495.000000, -0.006100
494.000000, -0.005800
493.000000, -0.005500
492.000000, -0.005700
491.000000, -0.006000
490.000000, -0.005600
489.000000, -0.005000
488.000000, -0.005400
487.000000, -0.005700
486.000000, -0.005400
485.000000, -0.005100
484.000000, -0.005200
483.000000, -0.005000
482.000000, -0.004800
481.000000, -0.005300
480.000000, -0.005200
479.000000, -0.005500
478.000000, -0.006000
477.000000, -0.005800
476.000000, -0.005900
475.000000, -0.005600
474.000000, -0.005700
473.000000, -0.005900
472.000000, -0.005600
471.000000, -0.005700
470.000000, -0.005500
469.000000, -0.005900
468.000000, -0.006600
467.000000, -0.006000
466.000000, -0.005800
465.000000, -0.006100
464.000000, -0.005900
463.000000, -0.005600
462.000000, -0.005600
461.000000, -0.006100
460.000000, -0.006000
459.000000, -0.005700
458.000000, -0.005800
457.000000, -0.005800
456.000000, -0.006000
455.000000, -0.004700
454.000000, -0.004100
453.000000, -0.004900
452.000000, -0.005200
451.000000, -0.005200
450.000000, -0.004800
449.000000, -0.004600
448.000000, -0.004700
447.000000, -0.004700
446.000000, -0.004900
445.000000, -0.004800
444.000000, -0.004700
443.000000, -0.004600
442.000000, -0.005200
441.000000, -0.004000
440.000000, -0.004000
439.000000, -0.003900
438.000000, -0.004400
437.000000, -0.004000
436.000000, -0.004400
435.000000, -0.004400
434.000000, -0.003900
433.000000, -0.004200
432.000000, -0.004300
431.000000, -0.004600
430.000000, -0.005100
429.000000, -0.004800
428.000000, -0.004200
427.000000, -0.004000
426.000000, -0.004400
425.000000, -0.004800
424.000000, -0.003600
423.000000, -0.003400
422.000000, -0.005400
421.000000, -0.005600
420.000000, -0.004600
419.000000, -0.004600
418.000000, -0.005300
417.000000, -0.004700
416.000000, -0.004100
415.000000, -0.004300
414.000000, -0.004400
413.000000, -0.004500
412.000000, -0.004000
411.000000, -0.003400
410.000000, -0.004400
409.000000, -0.003000
408.000000, -0.004600
407.000000, -0.003500
406.000000, -0.002700
405.000000, -0.002800
404.000000, -0.003900
403.000000, -0.003200
402.000000, -0.003900
401.000000, -0.002100
400.000000, -0.003700
399.000000, -0.003700
398.000000, -0.003200
397.000000, -0.002100
396.000000, -0.003100
395.000000, -0.003300
394.000000, -0.003800
393.000000, -0.002900
392.000000, -0.003900
391.000000, -0.000500
390.000000, -0.001500
389.000000, -0.003500
388.000000, -0.002900
387.000000, -0.001500
386.000000, -0.003200
385.000000, -0.002600
384.000000, -0.001900
383.000000, -0.000100
382.000000, -0.000100
381.000000, -0.002300
380.000000, -0.001200
379.000000, -0.003400
378.000000, 0.006000
377.000000, 0.027300
376.000000, 0.015200
375.000000, 0.014600
374.000000, 0.012900
373.000000, 0.020300
372.000000, -0.000800
371.000000, 0.012800
370.000000, 0.017200
369.000000, 0.009400
368.000000, 0.009000
367.000000, 0.004000
366.000000, 0.007800
365.000000, 0.010600
364.000000, 0.008400
363.000000, 0.003000
362.000000, 0.001400
361.000000, 0.006800
360.000000, 0.005200
359.000000, -0.003800
358.000000, 0.005300
357.000000, 0.004600
356.000000, 0.008400
355.000000, 0.003500
354.000000, 0.003800
353.000000, 0.002500
352.000000, 0.005900
351.000000, 0.005200
350.000000, 0.005100
349.000000, 0.004700
348.000000, 0.003500
347.000000, 0.003200
346.000000, 0.004200
345.000000, 0.004200
344.000000, -0.000400
343.000000, 0.003800
342.000000, 0.000700
341.000000, 0.006400
340.000000, 0.006200
339.000000, 0.010000
338.000000, 0.003200
337.000000, 0.009100
336.000000, 0.004200
335.000000, 0.006400
334.000000, 0.009900
333.000000, 0.020800
332.000000, 0.003800
331.000000, 0.012100
330.000000, 0.011800
329.000000, 0.012500
328.000000, 0.010600
327.000000, 0.014000
326.000000, 0.016100
325.000000, 0.019900
324.000000, 0.017200
323.000000, 0.020900
322.000000, 0.018300
321.000000, 0.008400
320.000000, 0.022400
319.000000, 0.000700
318.000000, 0.006900
317.000000, 0.018500
316.000000, 0.026400
315.000000, 0.015300
314.000000, 0.031500
313.000000, 0.018700
312.000000, 0.018400
311.000000, 0.015400
310.000000, 0.018300
309.000000, 0.020400
308.000000, 0.028800
307.000000, 0.025800
306.000000, 0.015300
305.000000, 0.017300
304.000000, 0.022100
303.000000, 0.018100
302.000000, 0.022400
301.000000, 0.032400
300.000000, 0.009500
299.000000, 0.022300
298.000000, 0.007300
297.000000, 0.033100
296.000000, 0.008600
295.000000, 0.018600
294.000000, 0.004900
293.000000, 0.024700
292.000000, 0.009000
291.000000, 0.012900
290.000000, 0.015000
289.000000, 0.021300
288.000000, 0.018900
287.000000, 0.020000
286.000000, 0.022300
285.000000, 0.012100
284.000000, 0.007200
283.000000, 0.018500
282.000000, 0.017000
281.000000, 0.010300
280.000000, 0.018800
279.000000, 0.026500
278.000000, 0.020900
277.000000, 0.011700
276.000000, 0.010100
275.000000, 0.012700
274.000000, 0.013800
273.000000, 0.006100
272.000000, 0.020000
271.000000, 0.014500
270.000000, 0.022100
269.000000, 0.007000
268.000000, 0.011600
267.000000, 0.005600
266.000000, 0.010700
265.000000, 0.006500
264.000000, 0.016300
263.000000, 0.013300
262.000000, 0.018400
261.000000, 0.009900
260.000000, 0.006800
259.000000, 0.008700
258.000000, 0.010200
257.000000, 0.010900
256.000000, 0.013200
255.000000, 0.005100
254.000000, 0.010800
253.000000, 0.012600
252.000000, 0.005800
251.000000, 0.004700
250.000000, 0.005400
