nm, %R
3300.000000, -8.741600
3299.000000, -8.614000
3298.000000, 11.321000
3297.000000, 4.362300
3296.000000, -18.139000
3295.000000, 2.655800
3294.000000, -11.528100
3293.000000, 11.488800
3292.000000, -5.200100
3291.000000, -10.750900
3290.000000, -3.222200
3289.000000, -3.268700
3288.000000, 23.286700
3287.000000, -7.427500
3286.000000, 19.542400
3285.000000, -15.496500
3284.000000, 0.446300
3283.000000, 14.349700
3282.000000, 7.495700
3281.000000, 16.638500
3280.000000, 8.619800
3279.000000, -7.319300
3278.000000, -28.725400
3277.000000, 68.317700
3276.000000, 10.658000
3275.000000, -26.833000
3274.000000, 26.887400
3273.000000, -27.063600
3272.000000, 102.435700
3271.000000, 49.145300
3270.000000, 42.996200
3269.000000, 2.646800
3268.000000, -35.855800
3267.000000, 100.355100
3266.000000, 459.007800
3265.000000, 1092.122800
3264.000000, 2980.772000
3263.000000, 5162.716100
3262.000000, -5595.425400
3261.000000, 11481.992800
3260.000000, 903.129300
3259.000000, 724.192900
3258.000000, 484.773600
3257.000000, 396.579900
3256.000000, 427.040500
3255.000000, 225.671300
3254.000000, 179.077400
3253.000000, 134.364700
3252.000000, 130.375300
3251.000000, 110.964800
3250.000000, 108.203200
3249.000000, 99.347500
3248.000000, 89.742200
3247.000000, 79.285700
3246.000000, 75.731600
3245.000000, 72.035300
3244.000000, 66.116900
3243.000000, 72.055200
3242.000000, 60.275500
3241.000000, 64.537900
3240.000000, 64.575200
3239.000000, 62.114400
3238.000000, 54.777300
3237.000000, 52.464100
3236.000000, 53.436300
3235.000000, 56.556400
3234.000000, 54.504900
3233.000000, 53.134700
3232.000000, 52.683500
3231.000000, 49.336200
3230.000000, 49.348400
3229.000000, 50.420700
3228.000000, 50.598500
3227.000000, 48.227900
3226.000000, 46.735200
3225.000000, 46.200700
3224.000000, 46.623100
3223.000000, 46.644700
3222.000000, 48.118500
3221.000000, 48.386000
3220.000000, 46.588100
3219.000000, 44.078100
3218.000000, 43.261700
3217.000000, 43.181200
3216.000000, 41.235200
3215.000000, 42.211000
3214.000000, 43.148700
3213.000000, 42.572100
3212.000000, 43.055300
3211.000000, 41.166600
3210.000000, 40.987200
3209.000000, 39.509000
3208.000000, 39.443600
3207.000000, 39.087600
3206.000000, 39.005000
3205.000000, 38.038300
3204.000000, 37.265200
3203.000000, 36.861600
3202.000000, 36.518300
3201.000000, 37.179300
3200.000000, 36.238900
3199.000000, 36.332700
3198.000000, 36.567800
3197.000000, 35.661300
3196.000000, 34.455900
3195.000000, 35.128000
3194.000000, 35.657300
3193.000000, 34.807300
3192.000000, 35.111800
3191.000000, 33.880200
3190.000000, 33.244400
3189.000000, 32.969500
3188.000000, 33.165500
3187.000000, 33.290500
3186.000000, 32.551000
3185.000000, 32.088600
3184.000000, 31.756200
3183.000000, 32.004900
3182.000000, 31.748600
3181.000000, 31.303400
3180.000000, 31.539600
3179.000000, 32.069100
3178.000000, 30.898000
3177.000000, 29.925500
3176.000000, 30.435800
3175.000000, 30.845800
3174.000000, 30.958800
3173.000000, 31.096200
3172.000000, 30.313700
3171.000000, 29.799400
3170.000000, 30.371200
3169.000000, 30.017200
3168.000000, 29.401800
3167.000000, 29.531700
3166.000000, 30.017900
3165.000000, 29.921800
3164.000000, 29.628800
3163.000000, 29.556400
3162.000000, 29.521000
3161.000000, 29.222400
3160.000000, 28.791000
3159.000000, 28.875600
3158.000000, 28.898200
3157.000000, 28.949200
3156.000000, 28.701400
3155.000000, 28.541800
3154.000000, 28.679000
3153.000000, 28.769800
3152.000000, 28.632000
3151.000000, 27.889600
3150.000000, 28.207200
3149.000000, 28.561300
3148.000000, 28.216600
3147.000000, 28.375500
3146.000000, 28.084300
3145.000000, 27.875500
3144.000000, 27.873700
3143.000000, 27.911100
3142.000000, 27.947700
3141.000000, 27.952600
3140.000000, 27.897400
3139.000000, 27.692400
3138.000000, 27.845300
3137.000000, 27.635400
3136.000000, 27.299000
3135.000000, 27.334800
3134.000000, 27.377000
3133.000000, 27.032900
3132.000000, 27.249500
3131.000000, 27.553500
3130.000000, 27.455600
3129.000000, 27.345200
3128.000000, 27.373300
3127.000000, 27.014700
3126.000000, 27.080400
3125.000000, 27.057700
3124.000000, 27.042700
3123.000000, 27.230400
3122.000000, 27.148800
3121.000000, 27.027000
3120.000000, 26.741500
3119.000000, 26.597200
3118.000000, 26.695600
3117.000000, 26.504600
3116.000000, 26.876300
3115.000000, 26.864000
3114.000000, 26.846100
3113.000000, 26.894400
3112.000000, 26.802800
3111.000000, 26.726300
3110.000000, 26.611800
3109.000000, 26.587000
3108.000000, 26.827300
3107.000000, 26.610000
3106.000000, 26.498000
3105.000000, 26.660900
3104.000000, 26.449400
3103.000000, 26.474900
3102.000000, 26.563100
3101.000000, 26.548900
3100.000000, 26.411600
3099.000000, 26.580600
3098.000000, 26.741200
3097.000000, 26.616600
3096.000000, 26.519100
3095.000000, 26.566000
3094.000000, 26.639000
3093.000000, 26.577200
3092.000000, 26.521400
3091.000000, 26.455400
3090.000000, 26.602100
3089.000000, 26.586700
3088.000000, 26.406900
3087.000000, 26.313200
3086.000000, 26.675200
3085.000000, 26.443200
3084.000000, 26.301600
3083.000000, 26.454400
3082.000000, 26.791600
3081.000000, 26.563100
3080.000000, 26.431300
3079.000000, 26.344900
3078.000000, 26.359600
3077.000000, 26.718400
3076.000000, 26.557300
3075.000000, 26.382600
3074.000000, 26.417000
3073.000000, 26.520800
3072.000000, 26.360500
3071.000000, 26.396200
3070.000000, 26.415300
3069.000000, 26.251200
3068.000000, 26.614900
3067.000000, 26.298800
3066.000000, 26.467400
3065.000000, 26.403700
3064.000000, 26.354100
3063.000000, 26.554100
3062.000000, 26.278100
3061.000000, 26.283900
3060.000000, 26.641600
3059.000000, 26.744700
3058.000000, 26.551600
3057.000000, 26.457000
3056.000000, 26.584800
3055.000000, 26.452500
3054.000000, 26.514300
3053.000000, 26.513500
3052.000000, 26.645500
3051.000000, 26.520500
3050.000000, 26.634200
3049.000000, 26.562900
3048.000000, 26.574500
3047.000000, 26.597200
3046.000000, 26.554000
3045.000000, 26.682600
3044.000000, 26.660400
3043.000000, 26.526600
3042.000000, 26.510500
3041.000000, 26.675400
3040.000000, 26.594400
3039.000000, 26.496900
3038.000000, 26.518300
3037.000000, 26.566600
3036.000000, 26.512500
3035.000000, 26.861600
3034.000000, 26.547600
3033.000000, 26.577100
3032.000000, 26.703500
3031.000000, 26.718900
3030.000000, 26.711300
3029.000000, 26.793300
3028.000000, 26.920800
3027.000000, 26.762500
3026.000000, 26.776800
3025.000000, 26.815000
3024.000000, 26.892500
3023.000000, 26.868700
3022.000000, 26.874800
3021.000000, 26.947200
3020.000000, 27.022900
3019.000000, 27.009500
3018.000000, 27.032300
3017.000000, 27.169300
3016.000000, 27.072000
3015.000000, 27.090500
3014.000000, 27.193700
3013.000000, 27.266500
3012.000000, 27.255500
3011.000000, 27.249500
3010.000000, 27.237600
3009.000000, 27.337500
3008.000000, 27.394500
3007.000000, 27.326400
3006.000000, 27.442700
3005.000000, 27.492300
3004.000000, 27.573700
3003.000000, 27.608700
3002.000000, 27.697400
3001.000000, 27.620600
3000.000000, 27.709700
2999.000000, 27.879300
2998.000000, 28.252500
2997.000000, 28.307300
2996.000000, 28.414600
2995.000000, 28.444000
2994.000000, 28.550600
2993.000000, 28.563600
2992.000000, 28.702500
2991.000000, 28.665800
2990.000000, 28.864900
2989.000000, 28.822900
2988.000000, 28.776200
2987.000000, 28.929800
2986.000000, 28.963100
2985.000000, 29.066700
2984.000000, 29.149900
2983.000000, 29.149200
2982.000000, 29.207900
2981.000000, 29.241000
2980.000000, 29.369000
2979.000000, 29.537100
2978.000000, 29.546700
2977.000000, 29.583600
2976.000000, 29.608300
2975.000000, 29.755500
2974.000000, 29.719100
2973.000000, 29.744300
2972.000000, 29.812400
2971.000000, 29.915400
2970.000000, 30.005600
2969.000000, 30.097300
2968.000000, 30.140600
2967.000000, 30.166500
2966.000000, 30.140700
2965.000000, 30.301500
2964.000000, 30.419600
2963.000000, 30.428000
2962.000000, 30.522900
2961.000000, 30.515400
2960.000000, 30.644200
2959.000000, 30.716300
2958.000000, 30.731700
2957.000000, 30.796400
2956.000000, 30.952400
2955.000000, 31.027900
2954.000000, 31.137100
2953.000000, 31.194000
2952.000000, 31.263100
2951.000000, 31.374400
2950.000000, 31.402700
2949.000000, 31.477500
2948.000000, 31.587100
2947.000000, 31.568800
2946.000000, 31.669200
2945.000000, 31.787800
2944.000000, 31.796500
2943.000000, 31.817800
2942.000000, 31.895500
2941.000000, 31.989200
2940.000000, 31.984600
2939.000000, 32.069000
2938.000000, 32.129500
2937.000000, 32.183300
2936.000000, 32.266700
2935.000000, 32.273900
2934.000000, 32.303900
2933.000000, 32.451200
2932.000000, 32.583200
2931.000000, 32.612400
2930.000000, 32.666400
2929.000000, 32.744100
2928.000000, 32.810900
2927.000000, 32.920500
2926.000000, 32.985200
2925.000000, 33.003700
2924.000000, 33.097500
2923.000000, 33.185200
2922.000000, 33.214800
2921.000000, 33.228700
2920.000000, 33.258700
2919.000000, 33.324100
2918.000000, 33.424100
2917.000000, 33.470200
2916.000000, 33.449600
2915.000000, 33.525500
2914.000000, 33.593600
2913.000000, 33.596800
2912.000000, 33.656200
2911.000000, 33.717600
2910.000000, 33.785500
2909.000000, 33.902100
2908.000000, 33.935900
2907.000000, 33.950000
2906.000000, 34.020100
2905.000000, 34.119400
2904.000000, 34.143600
2903.000000, 34.168200
2902.000000, 34.221300
2901.000000, 34.218100
2900.000000, 34.222200
2899.000000, 34.237800
2898.000000, 34.286500
2897.000000, 34.327100
2896.000000, 34.350200
2895.000000, 34.356100
2894.000000, 34.459400
2893.000000, 34.500600
2892.000000, 34.481800
2891.000000, 34.558200
2890.000000, 34.614200
2889.000000, 34.669300
2888.000000, 34.753800
2887.000000, 34.839400
2886.000000, 34.890800
2885.000000, 34.884800
2884.000000, 34.891000
2883.000000, 34.974100
2882.000000, 35.059800
2881.000000, 35.015700
2880.000000, 35.087900
2879.000000, 35.119100
2878.000000, 35.150100
2877.000000, 35.162500
2876.000000, 35.223600
2875.000000, 35.268800
2874.000000, 35.284500
2873.000000, 35.357100
2872.000000, 35.431900
2871.000000, 35.416900
2870.000000, 35.422400
2869.000000, 35.454000
2868.000000, 35.460200
2867.000000, 35.503200
2866.000000, 35.522600
2865.000000, 35.555300
2864.000000, 35.563900
2863.000000, 35.560100
2862.000000, 35.635300
2861.000000, 35.685100
2860.000000, 35.731800
2859.000000, 35.844000
2858.000000, 35.849100
2857.000000, 35.811200
2856.000000, 35.940500
2855.000000, 35.957500
2854.000000, 36.017500
2853.000000, 35.983200
2852.000000, 35.954000
2851.000000, 35.989300
2850.000000, 35.974900
2849.000000, 35.962400
2848.000000, 35.966100
2847.000000, 36.015700
2846.000000, 35.963500
2845.000000, 36.039100
2844.000000, 36.105500
2843.000000, 36.169000
2842.000000, 36.171500
2841.000000, 36.203100
2840.000000, 36.315700
2839.000000, 36.327200
2838.000000, 36.328800
2837.000000, 36.413000
2836.000000, 36.437300
2835.000000, 36.380700
2834.000000, 36.354400
2833.000000, 36.334100
2832.000000, 36.272700
2831.000000, 36.224700
2830.000000, 36.227700
2829.000000, 36.208800
2828.000000, 36.242700
2827.000000, 36.329100
2826.000000, 36.284500
2825.000000, 36.295300
2824.000000, 36.367400
2823.000000, 36.470100
2822.000000, 36.463900
2821.000000, 36.569400
2820.000000, 36.552500
2819.000000, 36.618500
2818.000000, 36.676600
2817.000000, 36.643400
2816.000000, 36.689000
2815.000000, 36.691800
2814.000000, 36.664100
2813.000000, 36.731400
2812.000000, 36.718200
2811.000000, 36.771300
2810.000000, 36.860200
2809.000000, 36.894500
2808.000000, 36.950200
2807.000000, 37.028400
2806.000000, 37.021500
2805.000000, 37.121600
2804.000000, 37.204200
2803.000000, 37.190600
2802.000000, 37.222500
2801.000000, 37.115900
2800.000000, 37.136800
2799.000000, 37.071900
2798.000000, 37.097600
2797.000000, 37.231400
2796.000000, 37.091600
2795.000000, 37.186900
2794.000000, 37.277200
2793.000000, 37.400000
2792.000000, 37.498000
2791.000000, 37.726600
2790.000000, 37.910400
2789.000000, 38.085100
2788.000000, 38.173300
2787.000000, 38.361400
2786.000000, 38.472200
2785.000000, 38.609400
2784.000000, 38.600900
2783.000000, 38.639500
2782.000000, 38.711300
2781.000000, 38.696800
2780.000000, 38.666100
2779.000000, 38.698300
2778.000000, 38.652100
2777.000000, 38.795900
2776.000000, 38.880200
2775.000000, 39.072900
2774.000000, 39.071700
2773.000000, 39.123000
2772.000000, 39.330100
2771.000000, 39.507400
2770.000000, 39.591500
2769.000000, 39.574200
2768.000000, 39.815800
2767.000000, 39.895000
2766.000000, 39.829700
2765.000000, 40.006100
2764.000000, 40.032500
2763.000000, 40.135200
2762.000000, 40.143800
2761.000000, 40.122600
2760.000000, 39.918500
2759.000000, 40.102700
2758.000000, 39.973400
2757.000000, 39.918300
2756.000000, 39.950100
2755.000000, 39.877700
2754.000000, 39.896300
2753.000000, 40.066100
2752.000000, 39.948400
2751.000000, 40.008700
2750.000000, 40.001600
2749.000000, 40.187400
2748.000000, 40.402000
2747.000000, 40.565300
2746.000000, 40.761500
2745.000000, 40.866500
2744.000000, 41.074100
2743.000000, 41.334700
2742.000000, 41.464600
2741.000000, 41.481200
2740.000000, 41.566800
2739.000000, 41.738900
2738.000000, 41.701900
2737.000000, 41.713800
2736.000000, 41.705000
2735.000000, 41.655300
2734.000000, 41.628900
2733.000000, 41.580000
2732.000000, 41.683300
2731.000000, 41.787800
2730.000000, 41.950100
2729.000000, 42.210300
2728.000000, 42.462500
2727.000000, 42.746000
2726.000000, 42.943000
2725.000000, 43.320100
2724.000000, 43.647700
2723.000000, 43.914400
2722.000000, 44.125900
2721.000000, 44.201000
2720.000000, 44.340800
2719.000000, 44.467700
2718.000000, 44.524900
2717.000000, 44.501500
2716.000000, 44.490700
2715.000000, 44.468400
2714.000000, 44.517600
2713.000000, 44.715400
2712.000000, 44.961000
2711.000000, 45.091100
2710.000000, 45.263000
2709.000000, 45.598900
2708.000000, 45.822800
2707.000000, 46.113100
2706.000000, 46.405500
2705.000000, 46.822800
2704.000000, 47.193900
2703.000000, 47.515400
2702.000000, 47.966300
2701.000000, 48.394800
2700.000000, 48.803200
2699.000000, 49.310900
2698.000000, 49.849100
2697.000000, 50.329800
2696.000000, 50.924100
2695.000000, 51.523000
2694.000000, 52.140500
2693.000000, 52.750200
2692.000000, 53.368900
2691.000000, 54.012500
2690.000000, 54.650400
2689.000000, 55.337300
2688.000000, 56.046200
2687.000000, 56.765100
2686.000000, 57.516700
2685.000000, 58.299300
2684.000000, 59.110900
2683.000000, 59.947000
2682.000000, 60.815700
2681.000000, 61.657700
2680.000000, 62.612300
2679.000000, 63.735700
2678.000000, 64.626600
2677.000000, 65.517000
2676.000000, 66.430300
2675.000000, 67.210500
2674.000000, 67.908200
2673.000000, 68.412600
2672.000000, 68.952800
2671.000000, 69.506200
2670.000000, 69.808900
2669.000000, 69.893900
2668.000000, 69.839000
2667.000000, 69.788100
2666.000000, 69.678900
2665.000000, 69.498400
2664.000000, 69.303000
2663.000000, 69.108300
2662.000000, 68.978800
2661.000000, 69.002400
2660.000000, 69.167000
2659.000000, 69.288400
2658.000000, 69.428900
2657.000000, 69.733100
2656.000000, 69.939000
2655.000000, 70.171400
2654.000000, 70.464000
2653.000000, 70.753300
2652.000000, 71.050800
2651.000000, 71.264800
2650.000000, 71.507300
2649.000000, 71.814300
2648.000000, 72.076800
2647.000000, 72.361700
2646.000000, 72.669900
2645.000000, 72.920500
2644.000000, 73.139200
2643.000000, 73.397400
2642.000000, 73.670100
2641.000000, 73.947200
2640.000000, 74.224600
2639.000000, 74.508200
2638.000000, 74.819700
2637.000000, 75.144500
2636.000000, 75.482300
2635.000000, 75.827200
2634.000000, 76.125500
2633.000000, 76.352800
2632.000000, 76.516000
2631.000000, 76.643400
2630.000000, 76.734500
2629.000000, 76.770700
2628.000000, 76.780700
2627.000000, 76.712400
2626.000000, 76.601000
2625.000000, 76.513200
2624.000000, 76.406300
2623.000000, 76.265600
2622.000000, 76.239300
2621.000000, 76.251700
2620.000000, 76.250200
2619.000000, 76.277100
2618.000000, 76.336700
2617.000000, 76.461000
2616.000000, 76.622100
2615.000000, 76.770700
2614.000000, 76.857400
2613.000000, 76.877600
2612.000000, 76.887900
2611.000000, 76.880800
2610.000000, 76.842800
2609.000000, 76.866000
2608.000000, 76.760200
2607.000000, 76.651500
2606.000000, 76.562300
2605.000000, 76.393000
2604.000000, 76.246200
2603.000000, 76.206800
2602.000000, 76.196000
2601.000000, 76.142600
2600.000000, 76.067900
2599.000000, 76.051600
2598.000000, 76.068900
2597.000000, 76.086000
2596.000000, 76.108300
2595.000000, 76.161900
2594.000000, 76.093200
2593.000000, 76.002700
2592.000000, 75.857900
2591.000000, 75.725300
2590.000000, 75.647000
2589.000000, 75.638100
2588.000000, 75.614300
2587.000000, 75.516800
2586.000000, 75.306200
2585.000000, 75.093900
2584.000000, 74.892700
2583.000000, 74.684300
2582.000000, 74.378200
2581.000000, 74.206600
2580.000000, 73.969600
2579.000000, 73.827100
2578.000000, 73.859800
2577.000000, 73.905800
2576.000000, 73.987900
2575.000000, 73.948000
2574.000000, 73.951700
2573.000000, 73.915700
2572.000000, 73.938200
2571.000000, 73.979000
2570.000000, 74.094800
2569.000000, 74.068000
2568.000000, 74.058200
2567.000000, 73.999400
2566.000000, 73.924400
2565.000000, 73.843100
2564.000000, 73.743800
2563.000000, 73.636600
2562.000000, 73.353500
2561.000000, 73.140800
2560.000000, 72.968400
2559.000000, 72.824300
2558.000000, 72.776300
2557.000000, 72.681800
2556.000000, 72.668100
2555.000000, 72.706600
2554.000000, 72.751300
2553.000000, 72.787900
2552.000000, 72.841800
2551.000000, 72.939700
2550.000000, 72.941800
2549.000000, 72.980100
2548.000000, 72.965900
2547.000000, 72.945800
2546.000000, 72.966500
2545.000000, 72.919400
2544.000000, 72.851600
2543.000000, 72.792200
2542.000000, 72.618000
2541.000000, 72.455600
2540.000000, 72.254100
2539.000000, 72.119200
2538.000000, 72.000500
2537.000000, 71.937700
2536.000000, 71.852900
2535.000000, 71.807000
2534.000000, 71.766100
2533.000000, 71.689800
2532.000000, 71.655000
2531.000000, 71.594300
2530.000000, 71.537300
2529.000000, 71.506500
2528.000000, 71.400800
2527.000000, 71.321700
2526.000000, 71.283500
2525.000000, 71.259200
2524.000000, 71.234400
2523.000000, 71.170300
2522.000000, 71.096000
2521.000000, 71.038200
2520.000000, 71.041800
2519.000000, 71.034300
2518.000000, 71.026900
2517.000000, 71.014500
2516.000000, 70.959100
2515.000000, 70.924400
2514.000000, 70.909500
2513.000000, 70.860300
2512.000000, 70.834600
2511.000000, 70.757200
2510.000000, 70.717300
2509.000000, 70.668400
2508.000000, 70.639200
2507.000000, 70.577000
2506.000000, 70.552400
2505.000000, 70.533100
2504.000000, 70.502900
2503.000000, 70.471100
2502.000000, 70.469000
2501.000000, 70.446800
2500.000000, 70.446600
2499.000000, 70.431400
2498.000000, 70.418800
2497.000000, 70.415300
2496.000000, 70.418600
2495.000000, 70.396300
2494.000000, 70.358800
2493.000000, 70.362500
2492.000000, 70.370800
2491.000000, 70.363700
2490.000000, 70.342200
2489.000000, 70.350700
2488.000000, 70.334200
2487.000000, 70.328200
2486.000000, 70.320200
2485.000000, 70.322800
2484.000000, 70.320100
2483.000000, 70.325200
2482.000000, 70.329800
2481.000000, 70.334300
2480.000000, 70.331500
2479.000000, 70.348700
2478.000000, 70.325300
2477.000000, 70.366500
2476.000000, 70.373500
2475.000000, 70.427100
2474.000000, 70.491000
2473.000000, 70.476400
2472.000000, 70.483000
2471.000000, 70.512800
2470.000000, 70.551600
2469.000000, 70.544700
2468.000000, 70.561300
2467.000000, 70.644400
2466.000000, 70.682900
2465.000000, 70.716500
2464.000000, 70.781900
2463.000000, 70.817900
2462.000000, 70.841000
2461.000000, 70.891000
2460.000000, 70.955200
2459.000000, 70.998600
2458.000000, 71.067000
2457.000000, 71.159400
2456.000000, 71.290400
2455.000000, 71.346500
2454.000000, 71.436800
2453.000000, 71.463100
2452.000000, 71.591400
2451.000000, 71.683600
2450.000000, 71.759900
2449.000000, 71.853200
2448.000000, 71.951100
2447.000000, 72.045000
2446.000000, 72.140600
2445.000000, 72.270800
2444.000000, 72.362600
2443.000000, 72.425700
2442.000000, 72.536300
2441.000000, 72.656800
2440.000000, 72.763900
2439.000000, 72.907600
2438.000000, 73.018400
2437.000000, 73.135600
2436.000000, 73.265600
2435.000000, 73.380700
2434.000000, 73.507300
2433.000000, 73.606500
2432.000000, 73.771000
2431.000000, 73.925400
2430.000000, 74.033200
2429.000000, 74.156200
2428.000000, 74.318100
2427.000000, 74.472500
2426.000000, 74.562300
2425.000000, 74.691100
2424.000000, 74.879800
2423.000000, 75.033700
2422.000000, 75.165700
2421.000000, 75.292400
2420.000000, 75.430000
2419.000000, 75.550800
2418.000000, 75.684400
2417.000000, 75.819800
2416.000000, 75.965500
2415.000000, 76.100300
2414.000000, 76.202600
2413.000000, 76.327200
2412.000000, 76.448200
2411.000000, 76.570400
2410.000000, 76.700400
2409.000000, 76.822300
2408.000000, 76.967300
2407.000000, 77.067500
2406.000000, 77.188000
2405.000000, 77.333000
2404.000000, 77.416900
2403.000000, 77.525100
2402.000000, 77.641100
2401.000000, 77.787300
2400.000000, 77.898100
2399.000000, 77.992600
2398.000000, 78.129200
2397.000000, 78.249400
2396.000000, 78.375000
2395.000000, 78.483900
2394.000000, 78.583100
2393.000000, 78.726400
2392.000000, 78.838400
2391.000000, 78.903500
2390.000000, 79.013300
2389.000000, 79.093500
2388.000000, 79.175000
2387.000000, 79.288600
2386.000000, 79.398100
2385.000000, 79.463700
2384.000000, 79.552700
2383.000000, 79.641100
2382.000000, 79.756300
2381.000000, 79.829800
2380.000000, 79.879900
2379.000000, 79.980400
2378.000000, 80.046100
2377.000000, 80.108800
2376.000000, 80.162100
2375.000000, 80.262400
2374.000000, 80.329900
2373.000000, 80.399900
2372.000000, 80.441900
2371.000000, 80.558900
2370.000000, 80.594600
2369.000000, 80.660300
2368.000000, 80.695600
2367.000000, 80.740500
2366.000000, 80.804000
2365.000000, 80.870000
2364.000000, 80.900100
2363.000000, 80.943200
2362.000000, 80.967600
2361.000000, 81.029600
2360.000000, 81.048300
2359.000000, 81.079800
2358.000000, 81.090000
2357.000000, 81.081900
2356.000000, 81.124600
2355.000000, 81.180900
2354.000000, 81.158600
2353.000000, 81.141700
2352.000000, 81.144200
2351.000000, 81.161000
2350.000000, 81.185800
2349.000000, 81.153400
2348.000000, 81.099900
2347.000000, 81.116500
2346.000000, 81.101500
2345.000000, 81.070700
2344.000000, 81.067700
2343.000000, 81.042800
2342.000000, 81.007800
2341.000000, 80.987000
2340.000000, 80.971400
2339.000000, 80.933100
2338.000000, 80.919200
2337.000000, 80.854400
2336.000000, 80.843100
2335.000000, 80.813000
2334.000000, 80.769800
2333.000000, 80.706800
2332.000000, 80.680600
2331.000000, 80.612400
2330.000000, 80.597100
2329.000000, 80.476600
2328.000000, 80.427600
2327.000000, 80.343800
2326.000000, 80.296600
2325.000000, 80.228000
2324.000000, 80.157800
2323.000000, 79.999700
2322.000000, 79.914600
2321.000000, 79.794400
2320.000000, 79.734500
2319.000000, 79.594600
2318.000000, 79.554700
2317.000000, 79.443900
2316.000000, 79.281800
2315.000000, 79.167600
2314.000000, 79.067900
2313.000000, 78.918300
2312.000000, 78.783500
2311.000000, 78.659000
2310.000000, 78.544800
2309.000000, 78.408900
2308.000000, 78.270700
2307.000000, 78.159000
2306.000000, 77.967600
2305.000000, 77.894800
2304.000000, 77.704900
2303.000000, 77.582900
2302.000000, 77.464000
2301.000000, 77.337600
2300.000000, 77.187400
2299.000000, 77.057200
2298.000000, 76.930600
2297.000000, 76.784600
2296.000000, 76.646900
2295.000000, 76.532500
2294.000000, 76.340000
2293.000000, 76.237600
2292.000000, 76.072100
2291.000000, 75.955900
2290.000000, 75.798000
2289.000000, 75.672400
2288.000000, 75.498600
2287.000000, 75.377700
2286.000000, 75.217700
2285.000000, 75.111400
2284.000000, 74.959000
2283.000000, 74.808600
2282.000000, 74.674600
2281.000000, 74.620600
2280.000000, 74.431600
2279.000000, 74.315400
2278.000000, 74.188800
2277.000000, 74.078000
2276.000000, 73.923800
2275.000000, 73.805700
2274.000000, 73.656100
2273.000000, 73.551700
2272.000000, 73.402700
2271.000000, 73.343400
2270.000000, 73.202800
2269.000000, 73.040200
2268.000000, 72.977400
2267.000000, 72.854500
2266.000000, 72.710500
2265.000000, 72.599900
2264.000000, 72.470500
2263.000000, 72.366400
2262.000000, 72.256100
2261.000000, 72.141100
2260.000000, 72.043200
2259.000000, 71.954600
2258.000000, 71.820700
2257.000000, 71.731600
2256.000000, 71.661400
2255.000000, 71.533300
2254.000000, 71.472800
2253.000000, 71.381200
2252.000000, 71.279400
2251.000000, 71.222000
2250.000000, 71.137900
2249.000000, 71.056500
2248.000000, 70.965900
2247.000000, 70.900500
2246.000000, 70.823000
2245.000000, 70.755900
2244.000000, 70.694800
2243.000000, 70.601800
2242.000000, 70.550800
2241.000000, 70.482300
2240.000000, 70.439400
2239.000000, 70.390200
2238.000000, 70.329600
2237.000000, 70.278300
2236.000000, 70.245500
2235.000000, 70.218400
2234.000000, 70.162300
2233.000000, 70.126300
2232.000000, 70.082000
2231.000000, 70.077300
2230.000000, 70.042000
2229.000000, 70.015900
2228.000000, 69.992100
2227.000000, 69.972200
2226.000000, 69.941800
2225.000000, 69.957200
2224.000000, 69.911300
2223.000000, 69.906400
2222.000000, 69.897800
2221.000000, 69.907600
2220.000000, 69.888400
2219.000000, 69.911200
2218.000000, 69.911000
2217.000000, 69.905200
2216.000000, 69.937600
2215.000000, 69.965700
2214.000000, 69.979000
2213.000000, 70.009200
2212.000000, 70.048600
2211.000000, 70.107000
2210.000000, 70.148200
2209.000000, 70.226600
2208.000000, 70.282300
2207.000000, 70.355900
2206.000000, 70.433000
2205.000000, 70.530800
2204.000000, 70.631300
2203.000000, 70.728700
2202.000000, 70.808100
2201.000000, 70.929600
2200.000000, 71.053100
2199.000000, 71.192700
2198.000000, 71.309100
2197.000000, 71.468300
2196.000000, 71.630500
2195.000000, 71.753400
2194.000000, 71.896000
2193.000000, 72.059300
2192.000000, 72.192200
2191.000000, 72.351300
2190.000000, 72.490900
2189.000000, 72.637900
2188.000000, 72.780400
2187.000000, 72.923000
2186.000000, 73.062000
2185.000000, 73.204900
2184.000000, 73.357700
2183.000000, 73.498100
2182.000000, 73.635500
2181.000000, 73.786800
2180.000000, 73.917100
2179.000000, 74.051900
2178.000000, 74.187000
2177.000000, 74.325400
2176.000000, 74.475400
2175.000000, 74.624500
2174.000000, 74.762400
2173.000000, 74.899100
2172.000000, 75.018300
2171.000000, 75.146200
2170.000000, 75.285100
2169.000000, 75.418000
2168.000000, 75.544600
2167.000000, 75.672400
2166.000000, 75.791700
2165.000000, 75.922400
2164.000000, 76.062400
2163.000000, 76.187400
2162.000000, 76.313600
2161.000000, 76.428800
2160.000000, 76.545300
2159.000000, 76.674500
2158.000000, 76.808900
2157.000000, 76.929500
2156.000000, 77.046500
2155.000000, 77.178600
2154.000000, 77.307100
2153.000000, 77.420900
2152.000000, 77.519400
2151.000000, 77.638300
2150.000000, 77.761300
2149.000000, 77.885300
2148.000000, 77.997300
2147.000000, 78.105000
2146.000000, 78.204200
2145.000000, 78.293800
2144.000000, 78.393900
2143.000000, 78.498500
2142.000000, 78.587900
2141.000000, 78.674100
2140.000000, 78.769600
2139.000000, 78.858300
2138.000000, 78.933300
2137.000000, 78.998500
2136.000000, 79.088000
2135.000000, 79.157600
2134.000000, 79.235500
2133.000000, 79.301800
2132.000000, 79.372600
2131.000000, 79.438100
2130.000000, 79.491200
2129.000000, 79.534300
2128.000000, 79.587300
2127.000000, 79.618800
2126.000000, 79.671600
2125.000000, 79.696600
2124.000000, 79.733200
2123.000000, 79.770700
2122.000000, 79.805400
2121.000000, 79.829400
2120.000000, 79.848600
2119.000000, 79.858000
2118.000000, 79.878800
2117.000000, 79.877500
2116.000000, 79.880900
2115.000000, 79.881100
2114.000000, 79.885600
2113.000000, 79.869800
2112.000000, 79.865300
2111.000000, 79.833300
2110.000000, 79.818700
2109.000000, 79.790000
2108.000000, 79.766500
2107.000000, 79.728000
2106.000000, 79.687700
2105.000000, 79.645400
2104.000000, 79.612800
2103.000000, 79.562500
2102.000000, 79.514100
2101.000000, 79.453000
2100.000000, 79.385600
2099.000000, 79.322700
2098.000000, 79.255500
2097.000000, 79.188600
2096.000000, 79.108400
2095.000000, 79.042700
2094.000000, 78.963300
2093.000000, 78.873000
2092.000000, 78.791900
2091.000000, 78.701200
2090.000000, 78.588000
2089.000000, 78.488800
2088.000000, 78.407900
2087.000000, 78.297600
2086.000000, 78.214800
2085.000000, 78.106500
2084.000000, 78.009200
2083.000000, 77.902000
2082.000000, 77.781800
2081.000000, 77.665400
2080.000000, 77.554800
2079.000000, 77.430700
2078.000000, 77.308800
2077.000000, 77.183500
2076.000000, 77.067400
2075.000000, 76.947600
2074.000000, 76.822700
2073.000000, 76.699700
2072.000000, 76.562000
2071.000000, 76.442000
2070.000000, 76.317400
2069.000000, 76.206000
2068.000000, 76.065000
2067.000000, 75.929600
2066.000000, 75.794700
2065.000000, 75.660500
2064.000000, 75.543700
2063.000000, 75.422400
2062.000000, 75.294500
2061.000000, 75.168100
2060.000000, 75.041200
2059.000000, 74.912800
2058.000000, 74.786800
2057.000000, 74.661200
2056.000000, 74.537200
2055.000000, 74.407300
2054.000000, 74.302600
2053.000000, 74.183000
2052.000000, 74.077600
2051.000000, 73.954000
2050.000000, 73.852600
2049.000000, 73.728800
2048.000000, 73.621900
2047.000000, 73.521900
2046.000000, 73.417800
2045.000000, 73.322500
2044.000000, 73.231100
2043.000000, 73.140300
2042.000000, 73.050600
2041.000000, 72.964200
2040.000000, 72.885700
2039.000000, 72.812500
2038.000000, 72.733000
2037.000000, 72.652000
2036.000000, 72.595700
2035.000000, 72.542000
2034.000000, 72.477000
2033.000000, 72.417800
2032.000000, 72.355600
2031.000000, 72.319400
2030.000000, 72.271600
2029.000000, 72.227000
2028.000000, 72.197600
2027.000000, 72.153000
2026.000000, 72.123100
2025.000000, 72.091300
2024.000000, 72.076600
2023.000000, 72.050200
2022.000000, 72.047300
2021.000000, 72.030800
2020.000000, 72.021700
2019.000000, 72.033500
2018.000000, 72.037700
2017.000000, 72.046100
2016.000000, 72.067600
2015.000000, 72.080200
2014.000000, 72.094800
2013.000000, 72.108300
2012.000000, 72.162700
2011.000000, 72.180900
2010.000000, 72.222600
2009.000000, 72.255200
2008.000000, 72.294000
2007.000000, 72.352300
2006.000000, 72.399500
2005.000000, 72.444600
2004.000000, 72.496900
2003.000000, 72.562300
2002.000000, 72.617600
2001.000000, 72.690900
2000.000000, 72.769400
1999.000000, 72.835800
1998.000000, 72.909000
1997.000000, 72.984100
1996.000000, 73.049500
1995.000000, 73.147300
1994.000000, 73.243600
1993.000000, 73.326200
1992.000000, 73.410200
1991.000000, 73.509400
1990.000000, 73.597500
1989.000000, 73.691200
1988.000000, 73.781100
1987.000000, 73.877100
1986.000000, 73.965100
1985.000000, 74.065100
1984.000000, 74.150900
1983.000000, 74.245200
1982.000000, 74.340100
1981.000000, 74.429600
1980.000000, 74.520000
1979.000000, 74.611000
1978.000000, 74.702400
1977.000000, 74.793300
1976.000000, 74.870800
1975.000000, 74.960100
1974.000000, 75.039200
1973.000000, 75.129100
1972.000000, 75.219600
1971.000000, 75.290000
1970.000000, 75.365900
1969.000000, 75.440700
1968.000000, 75.505200
1967.000000, 75.582600
1966.000000, 75.650100
1965.000000, 75.715800
1964.000000, 75.770100
1963.000000, 75.821800
1962.000000, 75.884300
1961.000000, 75.936700
1960.000000, 75.976800
1959.000000, 76.024200
1958.000000, 76.063000
1957.000000, 76.086100
1956.000000, 76.098400
1955.000000, 76.126300
1954.000000, 76.154500
1953.000000, 76.167900
1952.000000, 76.188100
1951.000000, 76.202500
1950.000000, 76.210400
1949.000000, 76.227800
1948.000000, 76.237800
1947.000000, 76.226100
1946.000000, 76.212700
1945.000000, 76.190200
1944.000000, 76.177400
1943.000000, 76.146400
1942.000000, 76.106800
1941.000000, 76.062000
1940.000000, 76.013000
1939.000000, 75.930800
1938.000000, 75.861800
1937.000000, 75.773300
1936.000000, 75.666200
1935.000000, 75.557200
1934.000000, 75.464800
1933.000000, 75.359500
1932.000000, 75.234300
1931.000000, 75.115900
1930.000000, 75.005400
1929.000000, 74.881800
1928.000000, 74.768100
1927.000000, 74.646400
1926.000000, 74.520200
1925.000000, 74.401700
1924.000000, 74.270300
1923.000000, 74.137900
1922.000000, 74.016800
1921.000000, 73.888100
1920.000000, 73.746900
1919.000000, 73.604800
1918.000000, 73.478900
1917.000000, 73.350400
1916.000000, 73.209900
1915.000000, 73.096300
1914.000000, 72.992800
1913.000000, 72.885000
1912.000000, 72.769000
1911.000000, 72.640000
1910.000000, 72.523700
1909.000000, 72.421500
1908.000000, 72.322300
1907.000000, 72.221500
1906.000000, 72.103100
1905.000000, 71.979500
1904.000000, 71.876400
1903.000000, 71.767000
1902.000000, 71.644500
1901.000000, 71.524300
1900.000000, 71.424400
1899.000000, 71.322200
1898.000000, 71.210900
1897.000000, 71.101300
1896.000000, 71.011500
1895.000000, 70.945200
1894.000000, 70.891300
1893.000000, 70.822500
1892.000000, 70.752000
1891.000000, 70.704900
1890.000000, 70.654800
1889.000000, 70.622000
1888.000000, 70.597100
1887.000000, 70.577600
1886.000000, 70.553700
1885.000000, 70.514400
1884.000000, 70.466600
1883.000000, 70.420900
1882.000000, 70.364600
1881.000000, 70.314000
1880.000000, 70.238100
1879.000000, 70.151000
1878.000000, 70.029600
1877.000000, 69.872700
1876.000000, 69.708100
1875.000000, 69.533100
1874.000000, 69.355400
1873.000000, 69.156200
1872.000000, 68.938400
1871.000000, 68.719800
1870.000000, 68.490600
1869.000000, 68.280900
1868.000000, 68.081500
1867.000000, 67.914400
1866.000000, 67.774100
1865.000000, 67.669900
1864.000000, 67.591900
1863.000000, 67.532400
1862.000000, 67.507300
1861.000000, 67.506600
1860.000000, 67.491800
1859.000000, 67.506400
1858.000000, 67.517700
1857.000000, 67.537500
1856.000000, 67.561500
1855.000000, 67.569900
1854.000000, 67.582900
1853.000000, 67.601700
1852.000000, 67.581800
1851.000000, 67.577300
1850.000000, 67.546100
1849.000000, 67.528700
1848.000000, 67.492000
1847.000000, 67.442300
1846.000000, 67.381700
1845.000000, 67.341900
1844.000000, 67.300500
1843.000000, 67.284700
1842.000000, 67.270400
1841.000000, 67.257600
1840.000000, 67.243800
1839.000000, 67.207000
1838.000000, 67.187800
1837.000000, 67.186800
1836.000000, 67.208500
1835.000000, 67.230500
1834.000000, 67.262800
1833.000000, 67.296800
1832.000000, 67.369500
1831.000000, 67.453700
1830.000000, 67.583400
1829.000000, 67.682600
1828.000000, 67.791100
1827.000000, 67.904400
1826.000000, 68.022300
1825.000000, 68.158100
1824.000000, 68.308000
1823.000000, 68.471500
1822.000000, 68.621200
1821.000000, 68.759400
1820.000000, 68.903600
1819.000000, 69.024200
1818.000000, 69.170400
1817.000000, 69.312800
1816.000000, 69.443300
1815.000000, 69.588500
1814.000000, 69.752100
1813.000000, 69.902200
1812.000000, 70.049400
1811.000000, 70.190500
1810.000000, 70.346800
1809.000000, 70.539500
1808.000000, 70.673900
1807.000000, 70.860700
1806.000000, 70.996100
1805.000000, 71.152000
1804.000000, 71.316700
1803.000000, 71.472000
1802.000000, 71.607700
1801.000000, 71.759000
1800.000000, 71.899500
1799.000000, 72.001600
1798.000000, 72.125300
1797.000000, 72.257000
1796.000000, 72.379400
1795.000000, 72.490100
1794.000000, 72.603500
1793.000000, 72.697700
1792.000000, 72.786700
1791.000000, 72.842100
1790.000000, 72.905700
1789.000000, 72.972800
1788.000000, 73.007400
1787.000000, 73.068700
1786.000000, 73.060800
1785.000000, 73.071200
1784.000000, 73.080000
1783.000000, 73.051900
1782.000000, 73.038200
1781.000000, 73.020000
1780.000000, 72.973700
1779.000000, 72.926800
1778.000000, 72.875300
1777.000000, 72.844600
1776.000000, 72.802800
1775.000000, 72.750900
1774.000000, 72.692000
1773.000000, 72.642100
1772.000000, 72.638200
1771.000000, 72.565000
1770.000000, 72.545500
1769.000000, 72.508400
1768.000000, 72.470800
1767.000000, 72.456100
1766.000000, 72.414200
1765.000000, 72.395200
1764.000000, 72.355900
1763.000000, 72.350000
1762.000000, 72.329100
1761.000000, 72.313500
1760.000000, 72.249800
1759.000000, 72.225600
1758.000000, 72.179100
1757.000000, 72.142500
1756.000000, 72.101300
1755.000000, 72.053400
1754.000000, 71.984100
1753.000000, 71.954800
1752.000000, 71.898600
1751.000000, 71.846300
1750.000000, 71.768100
1749.000000, 71.722100
1748.000000, 71.661400
1747.000000, 71.590300
1746.000000, 71.523900
1745.000000, 71.451900
1744.000000, 71.374700
1743.000000, 71.319600
1742.000000, 71.235800
1741.000000, 71.156300
1740.000000, 71.079600
1739.000000, 71.009500
1738.000000, 70.934600
1737.000000, 70.855600
1736.000000, 70.761800
1735.000000, 70.701700
1734.000000, 70.621300
1733.000000, 70.554700
1732.000000, 70.464700
1731.000000, 70.393300
1730.000000, 70.306300
1729.000000, 70.235200
1728.000000, 70.145400
1727.000000, 70.058200
1726.000000, 69.978300
1725.000000, 69.906300
1724.000000, 69.823600
1723.000000, 69.750000
1722.000000, 69.665800
1721.000000, 69.617100
1720.000000, 69.546200
1719.000000, 69.476400
1718.000000, 69.408300
1717.000000, 69.340400
1716.000000, 69.282900
1715.000000, 69.216200
1714.000000, 69.177000
1713.000000, 69.130600
1712.000000, 69.083600
1711.000000, 69.029600
1710.000000, 68.986700
1709.000000, 68.938500
1708.000000, 68.911500
1707.000000, 68.872200
1706.000000, 68.854300
1705.000000, 68.829900
1704.000000, 68.802500
1703.000000, 68.785300
1702.000000, 68.745900
1701.000000, 68.737300
1700.000000, 68.741000
1699.000000, 68.733000
1698.000000, 68.735000
1697.000000, 68.735100
1696.000000, 68.734900
1695.000000, 68.748400
1694.000000, 68.754800
1693.000000, 68.772600
1692.000000, 68.806700
1691.000000, 68.826100
1690.000000, 68.859400
1689.000000, 68.889900
1688.000000, 68.920900
1687.000000, 68.952800
1686.000000, 68.995500
1685.000000, 69.042300
1684.000000, 69.093400
1683.000000, 69.142600
1682.000000, 69.191600
1681.000000, 69.241100
1680.000000, 69.306900
1679.000000, 69.373400
1678.000000, 69.438400
1677.000000, 69.508300
1676.000000, 69.578000
1675.000000, 69.649400
1674.000000, 69.716300
1673.000000, 69.792300
1672.000000, 69.864800
1671.000000, 69.942800
1670.000000, 70.038400
1669.000000, 69.999200
1668.000000, 69.907500
1667.000000, 69.994900
1666.000000, 70.076900
1665.000000, 70.167500
1664.000000, 70.258100
1663.000000, 70.349000
1662.000000, 70.447500
1661.000000, 70.535400
1660.000000, 70.628600
1659.000000, 70.732800
1658.000000, 70.829700
1657.000000, 70.923800
1656.000000, 71.019900
1655.000000, 71.109100
1654.000000, 71.205300
1653.000000, 71.310500
1652.000000, 71.405700
1651.000000, 71.491000
1650.000000, 71.566700
1649.000000, 71.650900
1648.000000, 71.743900
1647.000000, 71.824000
1646.000000, 71.908300
1645.000000, 71.997900
1644.000000, 72.067100
1643.000000, 72.136300
1642.000000, 72.203700
1641.000000, 72.276700
1640.000000, 72.350600
1639.000000, 72.410500
1638.000000, 72.471000
1637.000000, 72.534000
1636.000000, 72.584800
1635.000000, 72.636700
1634.000000, 72.693900
1633.000000, 72.734800
1632.000000, 72.768100
1631.000000, 72.806200
1630.000000, 72.841200
1629.000000, 72.875800
1628.000000, 72.902500
1627.000000, 72.909800
1626.000000, 72.928300
1625.000000, 72.946400
1624.000000, 72.957400
1623.000000, 72.957900
1622.000000, 72.961300
1621.000000, 72.961700
1620.000000, 72.960800
1619.000000, 72.958600
1618.000000, 72.943000
1617.000000, 72.922800
1616.000000, 72.903300
1615.000000, 72.876400
1614.000000, 72.866500
1613.000000, 72.841700
1612.000000, 72.808800
1611.000000, 72.783200
1610.000000, 72.752700
1609.000000, 72.721000
1608.000000, 72.685100
1607.000000, 72.648000
1606.000000, 72.614700
1605.000000, 72.565000
1604.000000, 72.527300
1603.000000, 72.486100
1602.000000, 72.453300
1601.000000, 72.416900
1600.000000, 72.376700
1599.000000, 72.340100
1598.000000, 72.313500
1597.000000, 72.268500
1596.000000, 72.235900
1595.000000, 72.201400
1594.000000, 72.184600
1593.000000, 72.143300
1592.000000, 72.111400
1591.000000, 72.087000
1590.000000, 72.053200
1589.000000, 72.038000
1588.000000, 72.026500
1587.000000, 72.022400
1586.000000, 72.006100
1585.000000, 71.996000
1584.000000, 71.980200
1583.000000, 71.975300
1582.000000, 71.987900
1581.000000, 71.984300
1580.000000, 71.993200
1579.000000, 72.000400
1578.000000, 72.013900
1577.000000, 72.026400
1576.000000, 72.037500
1575.000000, 72.059400
1574.000000, 72.079400
1573.000000, 72.117700
1572.000000, 72.140200
1571.000000, 72.169900
1570.000000, 72.204800
1569.000000, 72.231000
1568.000000, 72.278600
1567.000000, 72.312000
1566.000000, 72.354000
1565.000000, 72.391600
1564.000000, 72.445000
1563.000000, 72.499000
1562.000000, 72.553900
1561.000000, 72.586500
1560.000000, 72.639100
1559.000000, 72.694100
1558.000000, 72.759600
1557.000000, 72.811900
1556.000000, 72.866000
1555.000000, 72.921000
1554.000000, 72.994500
1553.000000, 73.046200
1552.000000, 73.108300
1551.000000, 73.167700
1550.000000, 73.227900
1549.000000, 73.297900
1548.000000, 73.358000
1547.000000, 73.428000
1546.000000, 73.493900
1545.000000, 73.557200
1544.000000, 73.626200
1543.000000, 73.701300
1542.000000, 73.781100
1541.000000, 73.858300
1540.000000, 73.935700
1539.000000, 74.004500
1538.000000, 74.064500
1537.000000, 74.151700
1536.000000, 74.230600
1535.000000, 74.312000
1534.000000, 74.391600
1533.000000, 74.475500
1532.000000, 74.550400
1531.000000, 74.637100
1530.000000, 74.727600
1529.000000, 74.828700
1528.000000, 74.896900
1527.000000, 75.000800
1526.000000, 75.094100
1525.000000, 75.160500
1524.000000, 75.258000
1523.000000, 75.358200
1522.000000, 75.442600
1521.000000, 75.525700
1520.000000, 75.630800
1519.000000, 75.719900
1518.000000, 75.815500
1517.000000, 75.904800
1516.000000, 75.997000
1515.000000, 76.089700
1514.000000, 76.174800
1513.000000, 76.256600
1512.000000, 76.348900
1511.000000, 76.425800
1510.000000, 76.524700
1509.000000, 76.614300
1508.000000, 76.689900
1507.000000, 76.757600
1506.000000, 76.824500
1505.000000, 76.905100
1504.000000, 76.955000
1503.000000, 77.039900
1502.000000, 77.103500
1501.000000, 77.154500
1500.000000, 77.202000
1499.000000, 77.255000
1498.000000, 77.308700
1497.000000, 77.339400
1496.000000, 77.389000
1495.000000, 77.428100
1494.000000, 77.438100
1493.000000, 77.480300
1492.000000, 77.490900
1491.000000, 77.518300
1490.000000, 77.519800
1489.000000, 77.531800
1488.000000, 77.524200
1487.000000, 77.520500
1486.000000, 77.518400
1485.000000, 77.510000
1484.000000, 77.486100
1483.000000, 77.496500
1482.000000, 77.474900
1481.000000, 77.446500
1480.000000, 77.411500
1479.000000, 77.380000
1478.000000, 77.353100
1477.000000, 77.326100
1476.000000, 77.299400
1475.000000, 77.273800
1474.000000, 77.248500
1473.000000, 77.228100
1472.000000, 77.195800
1471.000000, 77.181600
1470.000000, 77.164100
1469.000000, 77.151700
1468.000000, 77.142400
1467.000000, 77.139800
1466.000000, 77.155800
1465.000000, 77.162900
1464.000000, 77.181800
1463.000000, 77.208100
1462.000000, 77.234500
1461.000000, 77.269700
1460.000000, 77.318200
1459.000000, 77.359700
1458.000000, 77.418900
1457.000000, 77.463200
1456.000000, 77.473200
1455.000000, 77.534400
1454.000000, 77.594800
1453.000000, 77.653500
1452.000000, 77.708800
1451.000000, 77.765400
1450.000000, 77.830500
1449.000000, 77.878100
1448.000000, 77.935700
1447.000000, 78.006600
1446.000000, 78.079200
1445.000000, 78.143400
1444.000000, 78.202900
1443.000000, 78.278400
1442.000000, 78.361600
1441.000000, 78.433600
1440.000000, 78.507600
1439.000000, 78.592400
1438.000000, 78.670600
1437.000000, 78.750200
1436.000000, 78.836800
1435.000000, 78.925800
1434.000000, 79.012300
1433.000000, 79.097400
1432.000000, 79.187000
1431.000000, 79.272400
1430.000000, 79.355000
1429.000000, 79.439400
1428.000000, 79.517500
1427.000000, 79.603700
1426.000000, 79.696400
1425.000000, 79.773000
1424.000000, 79.837400
1423.000000, 79.895700
1422.000000, 79.968900
1421.000000, 80.044900
1420.000000, 80.104800
1419.000000, 80.145400
1418.000000, 80.192000
1417.000000, 80.243900
1416.000000, 80.286800
1415.000000, 80.311500
1414.000000, 80.326600
1413.000000, 80.340200
1412.000000, 80.350200
1411.000000, 80.365300
1410.000000, 80.384900
1409.000000, 80.393800
1408.000000, 80.388500
1407.000000, 80.371900
1406.000000, 80.343700
1405.000000, 80.327600
1404.000000, 80.304200
1403.000000, 80.269500
1402.000000, 80.252500
1401.000000, 80.236700
1400.000000, 80.211600
1399.000000, 80.190000
1398.000000, 80.171000
1397.000000, 80.167400
1396.000000, 80.180500
1395.000000, 80.186100
1394.000000, 80.179500
1393.000000, 80.176100
1392.000000, 80.165000
1391.000000, 80.153600
1390.000000, 80.140700
1389.000000, 80.121100
1388.000000, 80.086100
1387.000000, 80.040700
1386.000000, 80.000000
1385.000000, 79.943400
1384.000000, 79.876500
1383.000000, 79.816000
1382.000000, 79.751400
1381.000000, 79.684300
1380.000000, 79.622900
1379.000000, 79.570300
1378.000000, 79.531200
1377.000000, 79.523900
1376.000000, 79.532600
1375.000000, 79.535400
1374.000000, 79.546400
1373.000000, 79.556300
1372.000000, 79.561400
1371.000000, 79.553100
1370.000000, 79.532400
1369.000000, 79.504700
1368.000000, 79.457800
1367.000000, 79.402800
1366.000000, 79.346000
1365.000000, 79.284200
1364.000000, 79.207300
1363.000000, 79.137400
1362.000000, 79.069000
1361.000000, 79.007500
1360.000000, 78.969800
1359.000000, 78.973300
1358.000000, 79.027600
1357.000000, 79.111400
1356.000000, 79.254000
1355.000000, 79.439100
1354.000000, 79.658200
1353.000000, 79.909700
1352.000000, 80.191600
1351.000000, 80.505200
1350.000000, 80.843400
1349.000000, 81.178900
1348.000000, 81.530000
1347.000000, 81.880000
1346.000000, 82.227900
1345.000000, 82.566500
1344.000000, 82.899500
1343.000000, 83.213900
1342.000000, 83.522500
1341.000000, 83.812700
1340.000000, 84.075900
1339.000000, 84.332500
1338.000000, 84.574500
1337.000000, 84.783200
1336.000000, 84.969000
1335.000000, 85.136800
1334.000000, 85.292400
1333.000000, 85.427900
1332.000000, 85.551800
1331.000000, 85.666700
1330.000000, 85.765000
1329.000000, 85.848200
1328.000000, 85.918200
1327.000000, 85.982600
1326.000000, 86.039200
1325.000000, 86.068700
1324.000000, 86.104000
1323.000000, 86.138000
1322.000000, 86.169700
1321.000000, 86.185100
1320.000000, 86.185900
1319.000000, 86.178700
1318.000000, 86.181300
1317.000000, 86.166900
1316.000000, 86.152600
1315.000000, 86.134400
1314.000000, 86.119000
1313.000000, 86.091400
1312.000000, 86.072600
1311.000000, 86.039900
1310.000000, 86.017600
1309.000000, 85.983600
1308.000000, 85.950900
1307.000000, 85.939500
1306.000000, 85.909600
1305.000000, 85.899600
1304.000000, 85.855600
1303.000000, 85.850400
1302.000000, 85.836600
1301.000000, 85.829000
1300.000000, 85.815500
1299.000000, 85.795800
1298.000000, 85.804500
1297.000000, 85.806400
1296.000000, 85.803700
1295.000000, 85.795800
1294.000000, 85.798600
1293.000000, 85.803500
1292.000000, 85.795700
1291.000000, 85.784800
1290.000000, 85.780600
1289.000000, 85.775600
1288.000000, 85.774400
1287.000000, 85.768900
1286.000000, 85.766300
1285.000000, 85.735600
1284.000000, 85.743500
1283.000000, 85.713300
1282.000000, 85.701100
1281.000000, 85.690800
1280.000000, 85.675200
1279.000000, 85.651500
1278.000000, 85.632900
1277.000000, 85.609300
1276.000000, 85.596400
1275.000000, 85.577700
1274.000000, 85.572700
1273.000000, 85.564000
1272.000000, 85.567400
1271.000000, 85.568000
1270.000000, 85.558000
1269.000000, 85.560400
1268.000000, 85.581800
1267.000000, 85.603500
1266.000000, 85.624800
1265.000000, 85.665700
1264.000000, 85.699200
1263.000000, 85.738400
1262.000000, 85.791900
1261.000000, 85.843500
1260.000000, 85.909400
1259.000000, 86.066900
1258.000000, 87.696200
1257.000000, 86.141500
1256.000000, 86.212100
1255.000000, 86.288000
1254.000000, 86.374700
1253.000000, 86.460400
1252.000000, 86.547700
1251.000000, 86.619200
1250.000000, 86.684700
1249.000000, 86.761700
1248.000000, 86.819900
1247.000000, 86.860800
1246.000000, 86.901500
1245.000000, 86.919600
1244.000000, 86.942600
1243.000000, 86.936200
1242.000000, 86.934200
1241.000000, 86.914700
1240.000000, 86.877800
1239.000000, 86.817300
1238.000000, 86.755300
1237.000000, 86.685800
1236.000000, 86.591500
1235.000000, 86.484100
1234.000000, 86.373900
1233.000000, 86.253300
1232.000000, 86.130600
1231.000000, 85.993200
1230.000000, 85.854600
1229.000000, 85.714200
1228.000000, 85.568100
1227.000000, 85.419100
1226.000000, 85.281500
1225.000000, 85.135700
1224.000000, 84.994900
1223.000000, 84.861000
1222.000000, 84.751300
1221.000000, 84.649500
1220.000000, 84.538800
1219.000000, 84.427900
1218.000000, 84.349900
1217.000000, 84.285400
1216.000000, 84.216100
1215.000000, 84.165100
1214.000000, 84.131400
1213.000000, 84.097400
1212.000000, 84.079300
1211.000000, 84.062900
1210.000000, 84.044700
1209.000000, 84.053700
1208.000000, 84.067400
1207.000000, 84.078100
1206.000000, 84.094500
1205.000000, 84.100300
1204.000000, 84.114300
1203.000000, 84.124300
1202.000000, 84.137200
1201.000000, 84.154700
1200.000000, 84.167200
1199.000000, 84.174400
1198.000000, 84.169100
1197.000000, 84.161700
1196.000000, 84.155600
1195.000000, 84.146700
1194.000000, 84.128100
1193.000000, 84.112500
1192.000000, 84.082400
1191.000000, 84.048400
1190.000000, 83.883600
1189.000000, 83.604600
1188.000000, 83.632700
1187.000000, 83.640300
1186.000000, 83.653500
1185.000000, 83.660200
1184.000000, 83.674700
1183.000000, 83.682900
1182.000000, 83.694300
1181.000000, 83.702300
1180.000000, 83.707300
1179.000000, 83.704200
1178.000000, 83.696200
1177.000000, 83.684200
1176.000000, 83.670200
1175.000000, 83.634600
1174.000000, 83.602000
1173.000000, 83.568600
1172.000000, 83.524500
1171.000000, 83.483100
1170.000000, 83.425300
1169.000000, 83.361500
1168.000000, 83.292000
1167.000000, 83.218200
1166.000000, 83.140100
1165.000000, 83.058300
1164.000000, 82.966400
1163.000000, 82.864500
1162.000000, 82.765600
1161.000000, 82.663900
1160.000000, 82.551100
1159.000000, 82.435600
1158.000000, 82.312900
1157.000000, 82.189300
1156.000000, 82.065700
1155.000000, 81.939400
1154.000000, 81.810900
1153.000000, 81.682200
1152.000000, 81.547200
1151.000000, 81.409300
1150.000000, 81.282200
1149.000000, 81.167100
1148.000000, 81.048500
1147.000000, 80.928200
1146.000000, 80.813400
1145.000000, 80.697800
1144.000000, 80.588300
1143.000000, 80.485700
1142.000000, 80.392900
1141.000000, 80.315100
1140.000000, 80.235600
1139.000000, 80.153400
1138.000000, 80.086200
1137.000000, 80.024700
1136.000000, 79.964000
1135.000000, 79.901600
1134.000000, 79.846000
1133.000000, 79.796200
1132.000000, 79.749500
1131.000000, 79.705600
1130.000000, 79.665900
1129.000000, 79.632100
1128.000000, 79.607700
1127.000000, 79.573200
1126.000000, 79.539400
1125.000000, 79.513100
1124.000000, 79.488200
1123.000000, 79.472200
1122.000000, 79.458500
1121.000000, 79.432500
1120.000000, 79.404900
1119.000000, 79.391100
1118.000000, 79.375500
1117.000000, 79.360100
1116.000000, 79.351800
1115.000000, 79.337900
1114.000000, 79.326300
1113.000000, 79.299700
1112.000000, 79.275200
1111.000000, 79.250900
1110.000000, 79.223100
1109.000000, 79.190300
1108.000000, 79.152900
1107.000000, 79.105500
1106.000000, 79.040900
1105.000000, 78.969000
1104.000000, 78.898200
1103.000000, 78.807100
1102.000000, 78.711700
1101.000000, 78.616300
1100.000000, 78.521500
1099.000000, 78.406000
1098.000000, 78.289000
1097.000000, 78.169000
1096.000000, 78.042500
1095.000000, 77.921200
1094.000000, 77.793200
1093.000000, 77.659000
1092.000000, 77.531000
1091.000000, 77.403800
1090.000000, 77.271000
1089.000000, 77.149900
1088.000000, 77.022100
1087.000000, 76.898600
1086.000000, 76.786000
1085.000000, 76.669700
1084.000000, 76.569200
1083.000000, 76.459000
1082.000000, 76.348600
1081.000000, 76.243900
1080.000000, 76.155600
1079.000000, 76.065200
1078.000000, 75.978100
1077.000000, 75.905000
1076.000000, 75.829500
1075.000000, 75.760000
1074.000000, 75.709500
1073.000000, 75.649400
1072.000000, 75.591600
1071.000000, 75.534000
1070.000000, 75.495400
1069.000000, 75.452300
1068.000000, 75.406900
1067.000000, 75.363100
1066.000000, 75.330900
1065.000000, 75.297300
1064.000000, 75.262300
1063.000000, 75.231100
1062.000000, 75.190200
1061.000000, 75.150500
1060.000000, 75.108700
1059.000000, 75.076900
1058.000000, 75.043000
1057.000000, 74.980200
1056.000000, 74.924900
1055.000000, 74.865200
1054.000000, 74.801600
1053.000000, 74.728600
1052.000000, 74.637900
1051.000000, 74.556700
1050.000000, 74.473700
1049.000000, 74.378100
1048.000000, 74.267100
1047.000000, 74.161600
1046.000000, 74.050000
1045.000000, 73.947600
1044.000000, 73.824000
1043.000000, 73.716800
1042.000000, 73.585900
1041.000000, 73.458100
1040.000000, 73.338400
1039.000000, 73.211800
1038.000000, 73.105000
1037.000000, 72.978500
1036.000000, 72.857400
1035.000000, 72.735100
1034.000000, 72.609000
1033.000000, 72.491600
1032.000000, 72.373300
1031.000000, 72.243400
1030.000000, 72.132600
1029.000000, 72.036600
1028.000000, 71.926400
1027.000000, 71.834500
1026.000000, 71.737300
1025.000000, 71.649700
1024.000000, 71.567400
1023.000000, 71.473100
1022.000000, 71.415800
1021.000000, 71.328400
1020.000000, 71.263000
1019.000000, 71.183000
1018.000000, 71.122100
1017.000000, 71.067500
1016.000000, 71.007300
1015.000000, 70.952300
1014.000000, 70.897200
1013.000000, 70.835400
1012.000000, 70.782400
1011.000000, 70.721800
1010.000000, 70.668900
1009.000000, 70.606200
1008.000000, 70.543900
1007.000000, 70.465900
1006.000000, 70.404000
1005.000000, 70.308800
1004.000000, 70.232100
1003.000000, 70.148000
1002.000000, 70.058100
1001.000000, 69.943900
1000.000000, 69.840200
999.000000, 69.727200
998.000000, 69.608300
997.000000, 69.478900
996.000000, 69.357100
995.000000, 69.221100
994.000000, 69.094700
993.000000, 68.958900
992.000000, 68.825100
991.000000, 68.671400
990.000000, 68.538800
989.000000, 68.379500
988.000000, 68.247300
987.000000, 68.098200
986.000000, 67.964200
985.000000, 67.817800
984.000000, 67.677100
983.000000, 67.546300
982.000000, 67.415500
981.000000, 67.277600
980.000000, 67.147900
979.000000, 67.032500
978.000000, 66.915800
977.000000, 66.810600
976.000000, 66.701800
975.000000, 66.601800
974.000000, 66.500800
973.000000, 66.407500
972.000000, 66.322700
971.000000, 66.235400
970.000000, 66.165200
969.000000, 66.080900
968.000000, 66.008400
967.000000, 65.932200
966.000000, 65.854200
965.000000, 65.773600
964.000000, 65.706500
963.000000, 65.614300
962.000000, 65.540500
961.000000, 65.449100
960.000000, 65.340500
959.000000, 65.244200
958.000000, 65.146200
957.000000, 65.031900
956.000000, 64.915400
955.000000, 64.797200
954.000000, 64.690400
953.000000, 64.562800
952.000000, 64.411600
951.000000, 64.270400
950.000000, 64.129700
949.000000, 63.989100
948.000000, 63.830800
947.000000, 63.673000
946.000000, 63.512400
945.000000, 63.340100
944.000000, 63.206000
943.000000, 63.048000
942.000000, 62.882000
941.000000, 62.728300
940.000000, 62.584100
939.000000, 62.431200
938.000000, 62.292100
937.000000, 62.156900
936.000000, 62.031700
935.000000, 61.889900
934.000000, 61.778400
933.000000, 61.660400
932.000000, 61.549300
931.000000, 61.430800
930.000000, 61.346400
929.000000, 61.252300
928.000000, 61.167400
927.000000, 61.076300
926.000000, 60.993200
925.000000, 60.907200
924.000000, 60.830300
923.000000, 60.754800
922.000000, 60.655400
921.000000, 60.552100
920.000000, 60.472800
919.000000, 60.392300
918.000000, 60.304900
917.000000, 60.195700
916.000000, 60.108900
915.000000, 60.004500
914.000000, 59.916600
913.000000, 59.804500
912.000000, 59.678000
911.000000, 59.577600
910.000000, 59.447600
909.000000, 59.296000
908.000000, 59.172700
907.000000, 59.054500
906.000000, 58.914900
905.000000, 58.768900
904.000000, 58.638500
903.000000, 58.497700
902.000000, 58.356600
901.000000, 58.207600
900.000000, 58.088300
899.000000, 57.961500
898.000000, 57.845000
897.000000, 57.730600
896.000000, 57.607100
895.000000, 57.479700
894.000000, 57.401500
893.000000, 57.313400
892.000000, 57.204700
891.000000, 57.116300
890.000000, 57.051900
889.000000, 170.965000
888.000000, 170.754100
887.000000, 170.613100
886.000000, 170.487100
885.000000, 170.322300
884.000000, 170.175200
883.000000, 170.009000
882.000000, 169.835100
881.000000, 169.722400
880.000000, 169.522200
879.000000, 169.351700
878.000000, 169.175100
877.000000, 169.062000
876.000000, 168.892800
875.000000, 168.699400
874.000000, 168.559700
873.000000, 168.446000
872.000000, 168.258400
871.000000, 168.119700
870.000000, 167.983900
869.000000, 167.817500
868.000000, 167.685900
867.000000, 167.554100
866.000000, 167.396700
865.000000, 167.258200
864.000000, 167.140900
863.000000, 166.985600
862.000000, 166.857200
861.000000, 166.727500
860.000000, 166.615100
859.000000, 166.442600
858.000000, 166.384500
857.000000, 166.253900
856.000000, 166.127000
855.000000, 166.005300
854.000000, 165.894100
853.000000, 165.803100
852.000000, 165.722600
851.000000, 165.623200
850.000000, 165.520800
849.000000, 165.441200
848.000000, 165.343200
847.000000, 165.262500
846.000000, 165.191600
845.000000, 165.115500
844.000000, 165.038700
843.000000, 165.001600
842.000000, 164.950600
841.000000, 164.887000
840.000000, 164.807800
839.000000, 164.793400
838.000000, 164.772600
837.000000, 164.734700
836.000000, 164.706900
835.000000, 164.664300
834.000000, 164.623800
833.000000, 164.612100
832.000000, 164.611700
831.000000, 164.582700
830.000000, 164.568100
829.000000, 164.570100
828.000000, 164.571000
827.000000, 164.554700
826.000000, 164.560400
825.000000, 164.583400
824.000000, 164.608600
823.000000, 164.603000
822.000000, 164.627800
821.000000, 164.663200
820.000000, 164.673800
819.000000, 164.717200
818.000000, 164.758700
817.000000, 164.789700
816.000000, 164.800500
815.000000, 164.864500
814.000000, 164.897300
813.000000, 164.934000
812.000000, 164.973700
811.000000, 164.996300
810.000000, 165.034700
809.000000, 165.039000
808.000000, 165.117800
807.000000, 165.144800
806.000000, 165.211700
805.000000, 165.262900
804.000000, 165.304700
803.000000, 165.381000
802.000000, 165.430300
801.000000, 165.471000
800.000000, 165.524300
799.000000, 165.588800
798.000000, 165.655100
797.000000, 165.723500
796.000000, 165.775600
795.000000, 165.822500
794.000000, 165.860700
793.000000, 165.934100
792.000000, 166.003200
791.000000, 166.060900
790.000000, 166.118600
789.000000, 166.169400
788.000000, 166.242600
787.000000, 166.289900
786.000000, 166.336300
785.000000, 166.397500
784.000000, 166.430000
783.000000, 166.491900
782.000000, 166.562700
781.000000, 166.598700
780.000000, 166.643600
779.000000, 166.674900
778.000000, 166.741200
777.000000, 166.830200
776.000000, 166.894400
775.000000, 166.923300
774.000000, 166.966500
773.000000, 167.012300
772.000000, 167.047700
771.000000, 167.121500
770.000000, 167.160900
769.000000, 167.197500
768.000000, 167.254500
767.000000, 167.319600
766.000000, 167.374600
765.000000, 167.397000
764.000000, 167.448600
763.000000, 167.479100
762.000000, 167.505400
761.000000, 167.542900
760.000000, 167.586600
759.000000, 167.624800
758.000000, 167.645600
757.000000, 167.684000
756.000000, 167.722500
755.000000, 167.742600
754.000000, 167.758700
753.000000, 167.791100
752.000000, 167.846100
751.000000, 167.883500
750.000000, 167.907300
749.000000, 167.954900
748.000000, 167.976200
747.000000, 168.004600
746.000000, 168.046200
745.000000, 168.073800
744.000000, 168.085600
743.000000, 168.113800
742.000000, 168.128300
741.000000, 168.158400
740.000000, 168.198400
739.000000, 168.204000
738.000000, 168.215200
737.000000, 168.237800
736.000000, 168.248300
735.000000, 168.270300
734.000000, 168.305900
733.000000, 168.324900
732.000000, 168.335300
731.000000, 168.348500
730.000000, 168.361300
729.000000, 168.385600
728.000000, 168.424600
727.000000, 168.431400
726.000000, 168.435000
725.000000, 168.450200
724.000000, 168.462400
723.000000, 168.480300
722.000000, 168.490600
721.000000, 168.504600
720.000000, 168.502700
719.000000, 168.536900
718.000000, 168.541000
717.000000, 168.529400
716.000000, 168.524800
715.000000, 168.536500
714.000000, 168.555600
713.000000, 168.545500
712.000000, 168.570300
711.000000, 168.590800
710.000000, 168.569700
709.000000, 168.578400
708.000000, 168.581800
707.000000, 168.592700
706.000000, 168.586800
705.000000, 168.579300
704.000000, 168.599500
703.000000, 168.597900
702.000000, 168.614100
701.000000, 168.635200
700.000000, 168.623700
699.000000, 168.609400
698.000000, 168.609800
697.000000, 168.613600
696.000000, 168.607400
695.000000, 168.605600
694.000000, 168.612700
693.000000, 168.594300
692.000000, 168.609900
691.000000, 168.601800
690.000000, 168.606000
689.000000, 168.594500
688.000000, 168.588200
687.000000, 168.573100
686.000000, 168.572400
685.000000, 168.569800
684.000000, 168.556500
683.000000, 168.563100
682.000000, 168.555600
681.000000, 168.546400
680.000000, 168.543700
679.000000, 168.548900
678.000000, 168.525500
677.000000, 168.517200
676.000000, 168.504800
675.000000, 168.485500
674.000000, 168.464400
673.000000, 168.449800
672.000000, 168.433400
671.000000, 168.427100
670.000000, 168.407800
669.000000, 168.407400
668.000000, 168.388100
667.000000, 168.368700
666.000000, 168.382700
665.000000, 168.364300
664.000000, 168.336800
663.000000, 168.322400
662.000000, 168.335200
661.000000, 168.294100
660.000000, 168.255100
659.000000, 168.270600
658.000000, 168.263700
657.000000, 168.222200
656.000000, 168.210100
655.000000, 168.210000
654.000000, 168.178100
653.000000, 168.150200
652.000000, 168.158500
651.000000, 168.126000
650.000000, 168.099200
649.000000, 168.069700
648.000000, 168.046000
647.000000, 168.039500
646.000000, 167.979600
645.000000, 167.972500
644.000000, 167.960200
643.000000, 167.903800
642.000000, 167.914700
641.000000, 167.866400
640.000000, 167.852300
639.000000, 167.817100
638.000000, 167.787600
637.000000, 167.756300
636.000000, 167.737400
635.000000, 167.759100
634.000000, 167.682300
633.000000, 167.659900
632.000000, 167.616900
631.000000, 167.588300
630.000000, 167.565300
629.000000, 167.543600
628.000000, 167.507400
627.000000, 167.485000
626.000000, 167.439300
625.000000, 167.401800
624.000000, 167.373400
623.000000, 167.327200
622.000000, 167.298200
621.000000, 167.269500
620.000000, 167.252100
619.000000, 167.205200
618.000000, 167.152700
617.000000, 167.119100
616.000000, 167.071500
615.000000, 167.020300
614.000000, 166.995500
613.000000, 166.995300
612.000000, 166.918200
611.000000, 166.880600
610.000000, 166.860900
609.000000, 166.791700
608.000000, 166.750300
607.000000, 166.732100
606.000000, 166.691200
605.000000, 166.619200
604.000000, 166.605500
603.000000, 166.548600
602.000000, 166.480500
601.000000, 166.448200
600.000000, 166.390200
599.000000, 166.349400
598.000000, 166.292000
597.000000, 166.247200
596.000000, 166.191600
595.000000, 166.153700
594.000000, 166.097000
593.000000, 166.062700
592.000000, 165.972900
591.000000, 165.943500
590.000000, 165.884100
589.000000, 165.845400
588.000000, 165.792900
587.000000, 165.734500
586.000000, 165.679300
585.000000, 165.617900
584.000000, 165.560100
583.000000, 165.498100
582.000000, 165.437700
581.000000, 165.393800
580.000000, 165.326100
579.000000, 165.263500
578.000000, 165.192700
577.000000, 165.131100
576.000000, 165.098600
575.000000, 165.010000
574.000000, 164.954800
573.000000, 164.886100
572.000000, 164.827600
571.000000, 164.744000
570.000000, 164.685500
569.000000, 164.636300
568.000000, 164.571700
567.000000, 164.501800
566.000000, 164.457000
565.000000, 164.398800
564.000000, 164.318900
563.000000, 164.232700
562.000000, 164.170400
561.000000, 164.018700
560.000000, 163.912800
559.000000, 163.823700
558.000000, 163.752300
557.000000, 163.672600
556.000000, 163.604100
555.000000, 163.539100
554.000000, 163.452900
553.000000, 163.356300
552.000000, 163.287200
551.000000, 163.204400
550.000000, 163.130100
549.000000, 163.023900
548.000000, 162.957500
547.000000, 162.869700
546.000000, 162.791000
545.000000, 162.721500
544.000000, 162.615400
543.000000, 162.527600
542.000000, 162.444500
541.000000, 162.360400
540.000000, 162.282000
539.000000, 162.189300
538.000000, 162.086900
537.000000, 161.986200
536.000000, 161.913400
535.000000, 161.820700
534.000000, 161.719500
533.000000, 161.626600
532.000000, 161.551200
531.000000, 161.472600
530.000000, 161.380100
529.000000, 161.278600
528.000000, 161.217700
527.000000, 161.133700
526.000000, 161.028700
525.000000, 160.948100
524.000000, 160.874900
523.000000, 160.818300
522.000000, 160.748500
521.000000, 160.693500
520.000000, 160.637700
519.000000, 160.577200
518.000000, 160.522600
517.000000, 160.496600
516.000000, 160.450000
515.000000, 160.417500
514.000000, 160.390200
513.000000, 160.385300
512.000000, 160.391900
511.000000, 160.388000
510.000000, 160.386100
509.000000, 160.406000
508.000000, 160.434000
507.000000, 160.462100
506.000000, 160.510700
505.000000, 160.545900
504.000000, 160.599200
503.000000, 160.645500
502.000000, 160.682600
501.000000, 160.734500
500.000000, 160.791600
499.000000, 160.833000
498.000000, 160.860100
497.000000, 160.899500
496.000000, 160.899600
495.000000, 160.871600
494.000000, 160.846100
493.000000, 160.816600
492.000000, 160.718200
491.000000, 160.584500
490.000000, 160.460900
489.000000, 160.292300
488.000000, 160.070400
487.000000, 159.831800
486.000000, 159.568700
485.000000, 159.277900
484.000000, 158.961600
483.000000, 158.641200
482.000000, 158.356900
481.000000, 158.104600
480.000000, 157.888000
479.000000, 157.723700
478.000000, 157.586300
477.000000, 157.474800
476.000000, 157.365100
475.000000, 157.244000
474.000000, 157.132500
473.000000, 157.032200
472.000000, 156.937900
471.000000, 156.842700
470.000000, 156.761700
469.000000, 156.687800
468.000000, 156.619900
467.000000, 156.563300
466.000000, 156.518100
465.000000, 156.489700
464.000000, 156.473000
463.000000, 156.462900
462.000000, 156.457200
461.000000, 156.447000
460.000000, 156.446100
459.000000, 156.463000
458.000000, 156.457800
457.000000, 156.454600
456.000000, 156.436500
455.000000, 156.427900
454.000000, 156.429400
453.000000, 156.407700
452.000000, 156.360200
451.000000, 156.314100
450.000000, 156.267200
449.000000, 156.200000
448.000000, 156.106500
447.000000, 155.985600
446.000000, 155.854700
445.000000, 155.690500
444.000000, 155.508300
443.000000, 155.357800
442.000000, 155.209500
441.000000, 155.048800
440.000000, 154.901300
439.000000, 154.746100
438.000000, 154.614800
437.000000, 154.469400
436.000000, 154.311400
435.000000, 154.188300
434.000000, 154.048000
433.000000, 153.900700
432.000000, 153.773100
431.000000, 153.625700
430.000000, 153.482000
429.000000, 153.339000
428.000000, 153.203300
427.000000, 153.057400
426.000000, 152.910700
425.000000, 152.758000
424.000000, 152.613200
423.000000, 152.459400
422.000000, 152.305600
421.000000, 152.159000
420.000000, 152.014500
419.000000, 151.852500
418.000000, 151.709400
417.000000, 151.563700
416.000000, 151.390500
415.000000, 151.241200
414.000000, 151.088700
413.000000, 150.934200
412.000000, 150.759700
411.000000, 150.585400
410.000000, 150.442500
409.000000, 150.276100
408.000000, 150.120700
407.000000, 149.952400
406.000000, 149.798900
405.000000, 149.638700
404.000000, 149.452300
403.000000, 149.300400
402.000000, 149.115300
401.000000, 148.961500
400.000000, 148.779600
399.000000, 148.589600
398.000000, 148.414000
397.000000, 148.256000
396.000000, 148.075700
395.000000, 147.889300
394.000000, 147.720000
393.000000, 147.540900
392.000000, 147.373000
391.000000, 147.184000
390.000000, 147.012700
389.000000, 146.829400
388.000000, 146.623000
387.000000, 146.441000
386.000000, 146.269600
385.000000, 146.085800
384.000000, 145.913600
383.000000, 145.709100
382.000000, 145.553800
381.000000, 145.363400
380.000000, 145.162400
379.000000, 144.977200
378.000000, 144.209700
377.000000, 143.922500
376.000000, 143.808000
375.000000, 143.441000
374.000000, 143.321700
373.000000, 143.237500
372.000000, 143.096700
371.000000, 142.961200
370.000000, 142.817500
369.000000, 142.695200
368.000000, 142.558800
367.000000, 142.397600
366.000000, 142.244800
365.000000, 142.065500
364.000000, 141.894600
363.000000, 141.772700
362.000000, 141.622800
361.000000, 141.423100
360.000000, 141.259600
359.000000, 141.098900
358.000000, 140.918500
357.000000, 140.747900
356.000000, 140.549400
355.000000, 140.368000
354.000000, 140.241200
353.000000, 140.063500
352.000000, 139.940000
351.000000, 139.705000
350.000000, 139.544200
349.000000, 139.372600
348.000000, 139.225600
347.000000, 139.012900
346.000000, 138.832400
345.000000, 138.686800
344.000000, 138.492500
343.000000, 138.349000
342.000000, 138.180700
341.000000, 138.012900
340.000000, 137.824600
339.000000, 137.662200
338.000000, 137.449800
337.000000, 137.263400
336.000000, 137.073200
335.000000, 136.933800
334.000000, 136.739000
333.000000, 136.509400
332.000000, 136.369800
331.000000, 136.204300
330.000000, 135.975800
329.000000, 135.849900
328.000000, 135.655600
327.000000, 135.494800
326.000000, 135.369800
325.000000, 135.130000
324.000000, 135.001800
323.000000, 134.773500
322.000000, 134.696000
321.000000, 134.470400
320.000000, 134.327500
319.000000, 134.196100
318.000000, 133.522000
317.000000, 133.345100
316.000000, 133.271900
315.000000, 133.117700
314.000000, 133.026600
313.000000, 132.943900
312.000000, 132.870900
311.000000, 132.784000
310.000000, 132.722800
309.000000, 132.634800
308.000000, 132.570800
307.000000, 132.496200
306.000000, 132.426600
305.000000, 132.368500
304.000000, 132.289500
303.000000, 132.202100
302.000000, 132.126900
301.000000, 132.042600
300.000000, 131.968500
299.000000, 131.908200
298.000000, 131.855800
297.000000, 131.723000
296.000000, 131.672800
295.000000, 131.604500
294.000000, 131.534900
293.000000, 131.462700
292.000000, 131.383700
291.000000, 131.283300
290.000000, 131.200600
289.000000, 131.122900
288.000000, 131.083800
287.000000, 131.023100
286.000000, 130.968500
285.000000, 130.920400
284.000000, 130.941200
283.000000, 130.916400
282.000000, 130.931100
281.000000, 130.947900
280.000000, 130.968400
279.000000, 131.002000
278.000000, 131.096000
277.000000, 131.173900
276.000000, 131.266400
275.000000, 131.353900
274.000000, 131.466700
273.000000, 131.463900
272.000000, 131.707600
271.000000, 131.953400
270.000000, 132.090500
269.000000, 132.331600
268.000000, 132.552800
267.000000, 132.760900
266.000000, 132.985100
265.000000, 133.265700
264.000000, 133.530700
263.000000, 133.790100
262.000000, 134.068800
261.000000, 134.302800
260.000000, 134.603900
259.000000, 134.850200
258.000000, 135.119700
257.000000, 135.330800
256.000000, 135.610600
255.000000, 135.846900
254.000000, 136.093500
253.000000, 136.264500
252.000000, 136.454300
251.000000, 136.681100
250.000000, 136.847600
