nm, %R
3300.000000, 1.241900
3299.000000, -7.338900
3298.000000, 114.902394
3297.000000, 219.127524
3296.000000, -9.848800
3295.000000, 248.147451
3294.000000, 0.593400
3293.000000, 213.271186
3292.000000, 6.097100
3291.000000, -7.967200
3290.000000, 7.487700
3289.000000, -5.185500
3288.000000, 54.148076
3287.000000, -9.389700
3286.000000, 78.965224
3285.000000, 17.187100
3284.000000, -1695.966838
3283.000000, -31.907287
3282.000000, 282.365890
3281.000000, 197.648827
3280.000000, -223.490104
3279.000000, -33.550900
3278.000000, -66.046100
3277.000000, 0.792767
3276.000000, -242.317508
3275.000000, 13.619900
3274.000000, 41.376630
3273.000000, -66.519700
3272.000000, 6.548596
3271.000000, 205.848372
3270.000000, -93.940860
3269.000000, 604.110624
3268.000000, 28.950900
3267.000000, -38.745116
3266.000000, 3.395149
3265.000000, -14.056267
3264.000000, -7.095075
3263.000000, -126.005156
3262.000000, -38809.571400
3261.000000, -132.415952
3260.000000, -29.128642
3259.000000, 18.248798
3258.000000, 28.260821
3257.000000, 7.245677
3256.000000, 36.916218
3255.000000, -0.874103
3254.000000, 3.249936
3253.000000, -13.185159
3252.000000, 2.863963
3251.000000, 3.466865
3250.000000, 14.284698
3249.000000, 13.110647
3248.000000, 4.405063
3247.000000, 0.408775
3246.000000, 4.120077
3245.000000, -7.666519
3244.000000, -8.437026
3243.000000, 10.459065
3242.000000, 1.779164
3241.000000, 8.486796
3240.000000, 6.624215
3239.000000, 9.957272
3238.000000, 1.841821
3237.000000, 5.329359
3236.000000, 6.204022
3235.000000, 16.536767
3234.000000, 4.159259
3233.000000, 4.514752
3232.000000, 7.355813
3231.000000, 0.368087
3230.000000, 1.885573
3229.000000, 2.756209
3228.000000, 6.633793
3227.000000, 2.919472
3226.000000, -3.974306
3225.000000, -1.072927
3224.000000, 1.994934
3223.000000, 7.508677
3222.000000, 8.115797
3221.000000, 6.646757
3220.000000, 4.852527
3219.000000, 1.130493
3218.000000, 1.268559
3217.000000, 0.981909
3216.000000, -0.780159
3215.000000, 4.807988
3214.000000, 5.225882
3213.000000, 6.119031
3212.000000, 6.686285
3211.000000, 4.363246
3210.000000, 3.591365
3209.000000, 1.936268
3208.000000, 1.962803
3207.000000, 3.538974
3206.000000, 5.344956
3205.000000, 1.446963
3204.000000, 0.480609
3203.000000, 0.046390
3202.000000, 1.667931
3201.000000, 3.529652
3200.000000, 4.060830
3199.000000, 4.616502
3198.000000, 4.232959
3197.000000, 3.290682
3196.000000, 2.944634
3195.000000, 2.143304
3194.000000, 2.640413
3193.000000, 4.532383
3192.000000, 3.067060
3191.000000, 2.017107
3190.000000, 1.078076
3189.000000, 0.497429
3188.000000, 1.512415
3187.000000, 2.675538
3186.000000, 1.007957
3185.000000, 0.999109
3184.000000, 2.852671
3183.000000, 2.509616
3182.000000, 1.903076
3181.000000, 1.885099
3180.000000, 2.542518
3179.000000, 3.457846
3178.000000, 3.167843
3177.000000, 3.192261
3176.000000, 3.732775
3175.000000, 2.027180
3174.000000, 2.085029
3173.000000, 2.961134
3172.000000, 2.869989
3171.000000, 2.911132
3170.000000, 2.249829
3169.000000, 2.216063
3168.000000, 1.855329
3167.000000, 1.454708
3166.000000, 1.657011
3165.000000, 2.021937
3164.000000, 2.355478
3163.000000, 2.311513
3162.000000, 2.168626
3161.000000, 1.747974
3160.000000, 2.072175
3159.000000, 2.823837
3158.000000, 2.512613
3157.000000, 2.767952
3156.000000, 3.190437
3155.000000, 2.610207
3154.000000, 2.341783
3153.000000, 2.183540
3152.000000, 2.139215
3151.000000, 1.978157
3150.000000, 1.895261
3149.000000, 1.961045
3148.000000, 1.920146
3147.000000, 2.219168
3146.000000, 2.215829
3145.000000, 2.390630
3144.000000, 2.895920
3143.000000, 2.395104
3142.000000, 2.157602
3141.000000, 1.900360
3140.000000, 1.939966
3139.000000, 1.794355
3138.000000, 1.969453
3137.000000, 2.827171
3136.000000, 2.375545
3135.000000, 2.554253
3134.000000, 2.437813
3133.000000, 2.502136
3132.000000, 2.663902
3131.000000, 2.599670
3130.000000, 2.056047
3129.000000, 2.623495
3128.000000, 2.514129
3127.000000, 2.111443
3126.000000, 2.393613
3125.000000, 2.186439
3124.000000, 2.087439
3123.000000, 2.097288
3122.000000, 2.568806
3121.000000, 3.045103
3120.000000, 2.780323
3119.000000, 2.328065
3118.000000, 2.060265
3117.000000, 2.207919
3116.000000, 2.111526
3115.000000, 2.085319
3114.000000, 2.575048
3113.000000, 2.646276
3112.000000, 2.516155
3111.000000, 2.093069
3110.000000, 2.291840
3109.000000, 2.044232
3108.000000, 2.437815
3107.000000, 2.649756
3106.000000, 2.573402
3105.000000, 2.416273
3104.000000, 2.403079
3103.000000, 2.252700
3102.000000, 2.109317
3101.000000, 2.195571
3100.000000, 2.167987
3099.000000, 2.262929
3098.000000, 2.741837
3097.000000, 2.422924
3096.000000, 2.170134
3095.000000, 2.767824
3094.000000, 2.383723
3093.000000, 2.610508
3092.000000, 2.111502
3091.000000, 2.382878
3090.000000, 2.290797
3089.000000, 2.834876
3088.000000, 2.499725
3087.000000, 2.208017
3086.000000, 2.753119
3085.000000, 2.492890
3084.000000, 2.648128
3083.000000, 2.415099
3082.000000, 2.651951
3081.000000, 2.549025
3080.000000, 2.447099
3079.000000, 2.587598
3078.000000, 2.376364
3077.000000, 2.497530
3076.000000, 2.599662
3075.000000, 2.392486
3074.000000, 2.537760
3073.000000, 2.857380
3072.000000, 2.520817
3071.000000, 2.650381
3070.000000, 2.821092
3069.000000, 2.421985
3068.000000, 2.495595
3067.000000, 3.097480
3066.000000, 2.328147
3065.000000, 2.679927
3064.000000, 2.722157
3063.000000, 3.137369
3062.000000, 3.250616
3061.000000, 2.427722
3060.000000, 2.191685
3059.000000, 3.178200
3058.000000, 2.852559
3057.000000, 2.513890
3056.000000, 3.400439
3055.000000, 2.836783
3054.000000, 2.665731
3053.000000, 3.067494
3052.000000, 3.396071
3051.000000, 2.998812
3050.000000, 3.234939
3049.000000, 2.810687
3048.000000, 2.931758
3047.000000, 3.366896
3046.000000, 3.151314
3045.000000, 2.907888
3044.000000, 2.777528
3043.000000, 3.461431
3042.000000, 3.259840
3041.000000, 3.316539
3040.000000, 2.836687
3039.000000, 3.033562
3038.000000, 3.315069
3037.000000, 3.517951
3036.000000, 2.978595
3035.000000, 3.110388
3034.000000, 3.314047
3033.000000, 3.351758
3032.000000, 3.418653
3031.000000, 3.245643
3030.000000, 3.100186
3029.000000, 3.161985
3028.000000, 3.551157
3027.000000, 3.751518
3026.000000, 3.097084
3025.000000, 3.636398
3024.000000, 3.496514
3023.000000, 3.391307
3022.000000, 3.429235
3021.000000, 4.219362
3020.000000, 3.729800
3019.000000, 3.386956
3018.000000, 3.808777
3017.000000, 3.721112
3016.000000, 4.109412
3015.000000, 3.527436
3014.000000, 3.683942
3013.000000, 3.695744
3012.000000, 3.607345
3011.000000, 3.981357
3010.000000, 3.747026
3009.000000, 3.850023
3008.000000, 3.898593
3007.000000, 4.051394
3006.000000, 4.384408
3005.000000, 3.878177
3004.000000, 3.578410
3003.000000, 4.015763
3002.000000, 3.741506
3001.000000, 4.033584
3000.000000, 3.879147
2999.000000, 4.341931
2998.000000, 5.180427
2997.000000, 5.593963
2996.000000, 5.840659
2995.000000, 5.705949
2994.000000, 6.251357
2993.000000, 5.536767
2992.000000, 6.110269
2991.000000, 5.882969
2990.000000, 6.323597
2989.000000, 6.271402
2988.000000, 5.960134
2987.000000, 5.844493
2986.000000, 6.164050
2985.000000, 6.132103
2984.000000, 6.260742
2983.000000, 6.008741
2982.000000, 5.629299
2981.000000, 5.607195
2980.000000, 5.881031
2979.000000, 6.161065
2978.000000, 5.735666
2977.000000, 5.888060
2976.000000, 6.117204
2975.000000, 5.855388
2974.000000, 5.760269
2973.000000, 5.707312
2972.000000, 5.818720
2971.000000, 5.980866
2970.000000, 6.093196
2969.000000, 6.114834
2968.000000, 5.989595
2967.000000, 6.082244
2966.000000, 5.665429
2965.000000, 5.684207
2964.000000, 5.902444
2963.000000, 5.906073
2962.000000, 5.895573
2961.000000, 5.805593
2960.000000, 5.779560
2959.000000, 5.869522
2958.000000, 5.760827
2957.000000, 5.511358
2956.000000, 5.586966
2955.000000, 5.899851
2954.000000, 5.929582
2953.000000, 5.828685
2952.000000, 5.655229
2951.000000, 5.933819
2950.000000, 6.005216
2949.000000, 5.881662
2948.000000, 5.886580
2947.000000, 5.626758
2946.000000, 5.570081
2945.000000, 5.660662
2944.000000, 5.752520
2943.000000, 5.671039
2942.000000, 5.499522
2941.000000, 5.688795
2940.000000, 5.976314
2939.000000, 5.907262
2938.000000, 5.889292
2937.000000, 5.656350
2936.000000, 5.627783
2935.000000, 5.800043
2934.000000, 5.680119
2933.000000, 5.588083
2932.000000, 5.835216
2931.000000, 5.883038
2930.000000, 5.693924
2929.000000, 5.678275
2928.000000, 5.630141
2927.000000, 5.657873
2926.000000, 5.728630
2925.000000, 5.731782
2924.000000, 5.651182
2923.000000, 5.539518
2922.000000, 5.659826
2921.000000, 5.598173
2920.000000, 5.565160
2919.000000, 5.679073
2918.000000, 5.617803
2917.000000, 5.571822
2916.000000, 5.510380
2915.000000, 5.622586
2914.000000, 5.674295
2913.000000, 5.521657
2912.000000, 5.556183
2911.000000, 5.530050
2910.000000, 5.492593
2909.000000, 5.589919
2908.000000, 5.573743
2907.000000, 5.549043
2906.000000, 5.497632
2905.000000, 5.593299
2904.000000, 5.577326
2903.000000, 5.513899
2902.000000, 5.465894
2901.000000, 5.441565
2900.000000, 5.455815
2899.000000, 5.421201
2898.000000, 5.368002
2897.000000, 5.447591
2896.000000, 5.418891
2895.000000, 5.309974
2894.000000, 5.404041
2893.000000, 5.586570
2892.000000, 5.276697
2891.000000, 5.368625
2890.000000, 5.393451
2889.000000, 5.341325
2888.000000, 5.358838
2887.000000, 5.404226
2886.000000, 5.487406
2885.000000, 5.341868
2884.000000, 5.197042
2883.000000, 5.309643
2882.000000, 5.374532
2881.000000, 5.297624
2880.000000, 5.349422
2879.000000, 5.389945
2878.000000, 5.347069
2877.000000, 5.188198
2876.000000, 5.182037
2875.000000, 5.164054
2874.000000, 5.109326
2873.000000, 5.202067
2872.000000, 5.248096
2871.000000, 5.120155
2870.000000, 5.235105
2869.000000, 5.274440
2868.000000, 5.028172
2867.000000, 5.166295
2866.000000, 5.040172
2865.000000, 5.076318
2864.000000, 4.977801
2863.000000, 4.973552
2862.000000, 4.974000
2861.000000, 4.868418
2860.000000, 4.804684
2859.000000, 4.928579
2858.000000, 4.952426
2857.000000, 4.948173
2856.000000, 4.994087
2855.000000, 4.808733
2854.000000, 4.895120
2853.000000, 4.797517
2852.000000, 4.818379
2851.000000, 4.801427
2850.000000, 4.776942
2849.000000, 4.753020
2848.000000, 4.613511
2847.000000, 4.694064
2846.000000, 4.519026
2845.000000, 4.618317
2844.000000, 4.615640
2843.000000, 4.658962
2842.000000, 4.533403
2841.000000, 4.713132
2840.000000, 4.653359
2839.000000, 4.490024
2838.000000, 4.481568
2837.000000, 4.506907
2836.000000, 4.420470
2835.000000, 4.507335
2834.000000, 4.260557
2833.000000, 4.485869
2832.000000, 4.356996
2831.000000, 4.161525
2830.000000, 4.392495
2829.000000, 4.043216
2828.000000, 4.111725
2827.000000, 4.462538
2826.000000, 4.070609
2825.000000, 4.156737
2824.000000, 4.137497
2823.000000, 4.134346
2822.000000, 4.071973
2821.000000, 4.098509
2820.000000, 3.938718
2819.000000, 4.003168
2818.000000, 3.951839
2817.000000, 3.835070
2816.000000, 3.799504
2815.000000, 3.872800
2814.000000, 3.882817
2813.000000, 3.826971
2812.000000, 3.744465
2811.000000, 3.665087
2810.000000, 3.909366
2809.000000, 3.937443
2808.000000, 3.709046
2807.000000, 3.534314
2806.000000, 3.628162
2805.000000, 3.747414
2804.000000, 3.819730
2803.000000, 3.645814
2802.000000, 3.635973
2801.000000, 3.449196
2800.000000, 3.520497
2799.000000, 3.478376
2798.000000, 3.540391
2797.000000, 3.592666
2796.000000, 3.447681
2795.000000, 3.476493
2794.000000, 3.555256
2793.000000, 3.402674
2792.000000, 3.336711
2791.000000, 3.656306
2790.000000, 3.393000
2789.000000, 3.539705
2788.000000, 3.490922
2787.000000, 3.319743
2786.000000, 3.709172
2785.000000, 3.560532
2784.000000, 3.471422
2783.000000, 3.521008
2782.000000, 3.555809
2781.000000, 3.385551
2780.000000, 3.396257
2779.000000, 3.235026
2778.000000, 3.362301
2777.000000, 3.329733
2776.000000, 3.194171
2775.000000, 3.466085
2774.000000, 3.636136
2773.000000, 3.259464
2772.000000, 3.364599
2771.000000, 3.650202
2770.000000, 3.700037
2769.000000, 3.404238
2768.000000, 3.345406
2767.000000, 3.539040
2766.000000, 3.177528
2765.000000, 3.442975
2764.000000, 3.399488
2763.000000, 3.703731
2762.000000, 3.444617
2761.000000, 3.303126
2760.000000, 2.908676
2759.000000, 3.500263
2758.000000, 3.477563
2757.000000, 3.357608
2756.000000, 3.527901
2755.000000, 3.259717
2754.000000, 3.172224
2753.000000, 3.687407
2752.000000, 3.423667
2751.000000, 3.420256
2750.000000, 3.223121
2749.000000, 3.288095
2748.000000, 3.248602
2747.000000, 3.280143
2746.000000, 3.423328
2745.000000, 3.106946
2744.000000, 3.385832
2743.000000, 3.424725
2742.000000, 3.381197
2741.000000, 3.383460
2740.000000, 3.036799
2739.000000, 3.205882
2738.000000, 3.258365
2737.000000, 3.237538
2736.000000, 3.449706
2735.000000, 3.356116
2734.000000, 3.214594
2733.000000, 3.254690
2732.000000, 3.211358
2731.000000, 3.263632
2730.000000, 3.253866
2729.000000, 3.235703
2728.000000, 3.280306
2727.000000, 3.352127
2726.000000, 3.146264
2725.000000, 3.176816
2724.000000, 3.381392
2723.000000, 3.412093
2722.000000, 3.296930
2721.000000, 3.296079
2720.000000, 3.457764
2719.000000, 3.500743
2718.000000, 3.394954
2717.000000, 3.241688
2716.000000, 3.406779
2715.000000, 3.417483
2714.000000, 3.317115
2713.000000, 3.452502
2712.000000, 3.353351
2711.000000, 3.132547
2710.000000, 3.249674
2709.000000, 3.393722
2708.000000, 3.220667
2707.000000, 3.155069
2706.000000, 3.236685
2705.000000, 3.324022
2704.000000, 3.345559
2703.000000, 3.154977
2702.000000, 3.289393
2701.000000, 3.317505
2700.000000, 3.208396
2699.000000, 3.239040
2698.000000, 3.251012
2697.000000, 3.385668
2696.000000, 3.298242
2695.000000, 3.253110
2694.000000, 3.399469
2693.000000, 3.498375
2692.000000, 3.470935
2691.000000, 3.528628
2690.000000, 3.623212
2689.000000, 3.707445
2688.000000, 3.724249
2687.000000, 3.711083
2686.000000, 3.833843
2685.000000, 3.901248
2684.000000, 3.860033
2683.000000, 3.909787
2682.000000, 4.050270
2681.000000, 4.089027
2680.000000, 4.159247
2679.000000, 4.253660
2678.000000, 4.363219
2677.000000, 4.640017
2676.000000, 4.610095
2675.000000, 4.519086
2674.000000, 4.816061
2673.000000, 4.828935
2672.000000, 4.950343
2671.000000, 5.082856
2670.000000, 5.083736
2669.000000, 5.156101
2668.000000, 5.073097
2667.000000, 5.097717
2666.000000, 5.106567
2665.000000, 5.185299
2664.000000, 5.314056
2663.000000, 5.281131
2662.000000, 5.223779
2661.000000, 5.183443
2660.000000, 5.257420
2659.000000, 5.269858
2658.000000, 5.265099
2657.000000, 5.353555
2656.000000, 5.321351
2655.000000, 5.281211
2654.000000, 5.333362
2653.000000, 5.325123
2652.000000, 5.344627
2651.000000, 5.324789
2650.000000, 5.329386
2649.000000, 5.392519
2648.000000, 5.405900
2647.000000, 5.327542
2646.000000, 5.341551
2645.000000, 5.378734
2644.000000, 5.389586
2643.000000, 5.419129
2642.000000, 5.431376
2641.000000, 5.407101
2640.000000, 5.396594
2639.000000, 5.406385
2638.000000, 5.429452
2637.000000, 5.415699
2636.000000, 5.437169
2635.000000, 5.444089
2634.000000, 5.459931
2633.000000, 5.439224
2632.000000, 5.419520
2631.000000, 5.437259
2630.000000, 5.456216
2629.000000, 5.462240
2628.000000, 5.504769
2627.000000, 5.511625
2626.000000, 5.515594
2625.000000, 5.565314
2624.000000, 5.571530
2623.000000, 5.585742
2622.000000, 5.571929
2621.000000, 5.536008
2620.000000, 5.548313
2619.000000, 5.546750
2618.000000, 5.524996
2617.000000, 5.548188
2616.000000, 5.578547
2615.000000, 5.583901
2614.000000, 5.631858
2613.000000, 5.555845
2612.000000, 5.569407
2611.000000, 5.599838
2610.000000, 5.609244
2609.000000, 5.602217
2608.000000, 5.627656
2607.000000, 5.600673
2606.000000, 5.695231
2605.000000, 5.650780
2604.000000, 5.600541
2603.000000, 5.611573
2602.000000, 5.693737
2601.000000, 5.663584
2600.000000, 5.601180
2599.000000, 5.558200
2598.000000, 5.674067
2597.000000, 5.689089
2596.000000, 5.671261
2595.000000, 5.637990
2594.000000, 5.650308
2593.000000, 5.687561
2592.000000, 5.652674
2591.000000, 5.611731
2590.000000, 5.608154
2589.000000, 5.521159
2588.000000, 5.694822
2587.000000, 5.663243
2586.000000, 5.613748
2585.000000, 5.616169
2584.000000, 5.737942
2583.000000, 5.659690
2582.000000, 5.673974
2581.000000, 5.687634
2580.000000, 5.685849
2579.000000, 5.638986
2578.000000, 5.670744
2577.000000, 5.662749
2576.000000, 5.751346
2575.000000, 5.666549
2574.000000, 5.676272
2573.000000, 5.686478
2572.000000, 5.731543
2571.000000, 5.726760
2570.000000, 5.733871
2569.000000, 5.680051
2568.000000, 5.689714
2567.000000, 5.620316
2566.000000, 5.668088
2565.000000, 5.713736
2564.000000, 5.749907
2563.000000, 5.662537
2562.000000, 5.699115
2561.000000, 5.678089
2560.000000, 5.757972
2559.000000, 5.718696
2558.000000, 5.731948
2557.000000, 5.720552
2556.000000, 5.728373
2555.000000, 5.769628
2554.000000, 5.739416
2553.000000, 5.708366
2552.000000, 5.759468
2551.000000, 5.717051
2550.000000, 5.739919
2549.000000, 5.767189
2548.000000, 5.772148
2547.000000, 5.705880
2546.000000, 5.765934
2545.000000, 5.720563
2544.000000, 5.765968
2543.000000, 5.776855
2542.000000, 5.743342
2541.000000, 5.739929
2540.000000, 5.740297
2539.000000, 5.774468
2538.000000, 5.807460
2537.000000, 5.818507
2536.000000, 5.787240
2535.000000, 5.773950
2534.000000, 5.838272
2533.000000, 5.771532
2532.000000, 5.803084
2531.000000, 5.965838
2530.000000, 5.948505
2529.000000, 5.997497
2528.000000, 5.979205
2527.000000, 5.917133
2526.000000, 5.922268
2525.000000, 5.942110
2524.000000, 5.989662
2523.000000, 5.932531
2522.000000, 5.939153
2521.000000, 5.939762
2520.000000, 5.950581
2519.000000, 5.948112
2518.000000, 5.940144
2517.000000, 5.933577
2516.000000, 5.932150
2515.000000, 5.928848
2514.000000, 5.934889
2513.000000, 5.932800
2512.000000, 5.939047
2511.000000, 5.906537
2510.000000, 5.931505
2509.000000, 5.905468
2508.000000, 5.963969
2507.000000, 5.926718
2506.000000, 5.919714
2505.000000, 5.936504
2504.000000, 5.938337
2503.000000, 5.924698
2502.000000, 5.927287
2501.000000, 5.926884
2500.000000, 5.951884
2499.000000, 5.952317
2498.000000, 5.958636
2497.000000, 5.943879
2496.000000, 5.953825
2495.000000, 5.944773
2494.000000, 5.930886
2493.000000, 5.948055
2492.000000, 5.951048
2491.000000, 5.944258
2490.000000, 5.963703
2489.000000, 5.961703
2488.000000, 5.950732
2487.000000, 5.951667
2486.000000, 5.955188
2485.000000, 5.966059
2484.000000, 5.959605
2483.000000, 5.968984
2482.000000, 5.982812
2481.000000, 5.963662
2480.000000, 5.956079
2479.000000, 5.960736
2478.000000, 5.931151
2477.000000, 5.933932
2476.000000, 5.916574
2475.000000, 5.975115
2474.000000, 5.997361
2473.000000, 5.982712
2472.000000, 6.020743
2471.000000, 6.013660
2470.000000, 6.010920
2469.000000, 6.011649
2468.000000, 5.963892
2467.000000, 6.020576
2466.000000, 6.045168
2465.000000, 6.020660
2464.000000, 6.013967
2463.000000, 5.969960
2462.000000, 5.993845
2461.000000, 6.041952
2460.000000, 6.019150
2459.000000, 5.980963
2458.000000, 5.952974
2457.000000, 6.015509
2456.000000, 6.090021
2455.000000, 6.056499
2454.000000, 6.035405
2453.000000, 5.979450
2452.000000, 6.006029
2451.000000, 6.048943
2450.000000, 6.049618
2449.000000, 5.993888
2448.000000, 6.004078
2447.000000, 6.059685
2446.000000, 6.055536
2445.000000, 6.051822
2444.000000, 6.072198
2443.000000, 6.031837
2442.000000, 6.049661
2441.000000, 6.053941
2440.000000, 6.069906
2439.000000, 6.068229
2438.000000, 6.062171
2437.000000, 6.046576
2436.000000, 6.090989
2435.000000, 6.081844
2434.000000, 6.063888
2433.000000, 5.993221
2432.000000, 6.026758
2431.000000, 6.067603
2430.000000, 6.088214
2429.000000, 6.047775
2428.000000, 6.104031
2427.000000, 6.119440
2426.000000, 6.006923
2425.000000, 5.978490
2424.000000, 6.086688
2423.000000, 6.126047
2422.000000, 6.091874
2421.000000, 6.083084
2420.000000, 6.124221
2419.000000, 6.084912
2418.000000, 6.053559
2417.000000, 6.060686
2416.000000, 6.053932
2415.000000, 6.107072
2414.000000, 6.091262
2413.000000, 6.045682
2412.000000, 6.063845
2411.000000, 6.082638
2410.000000, 6.100881
2409.000000, 6.100052
2408.000000, 6.101292
2407.000000, 6.062867
2406.000000, 6.098746
2405.000000, 6.128173
2404.000000, 6.065730
2403.000000, 6.045397
2402.000000, 6.067147
2401.000000, 6.098296
2400.000000, 6.073576
2399.000000, 6.075961
2398.000000, 6.119863
2397.000000, 6.124648
2396.000000, 6.159234
2395.000000, 6.116031
2394.000000, 6.058555
2393.000000, 6.118659
2392.000000, 6.148273
2391.000000, 6.087689
2390.000000, 6.091380
2389.000000, 6.107834
2388.000000, 6.083739
2387.000000, 6.062662
2386.000000, 6.087425
2385.000000, 6.116629
2384.000000, 6.108781
2383.000000, 6.106520
2382.000000, 6.143214
2381.000000, 6.151713
2380.000000, 6.111174
2379.000000, 6.131627
2378.000000, 6.136589
2377.000000, 6.097457
2376.000000, 6.117604
2375.000000, 6.112825
2374.000000, 6.097729
2373.000000, 6.095654
2372.000000, 6.058037
2371.000000, 6.139731
2370.000000, 6.110459
2369.000000, 6.120483
2368.000000, 6.071211
2367.000000, 6.093101
2366.000000, 6.116281
2365.000000, 6.120193
2364.000000, 6.098633
2363.000000, 6.124542
2362.000000, 6.120720
2361.000000, 6.143311
2360.000000, 6.118450
2359.000000, 6.112990
2358.000000, 6.084597
2357.000000, 6.106542
2356.000000, 6.117750
2355.000000, 6.167830
2354.000000, 6.140569
2353.000000, 6.114119
2352.000000, 6.125392
2351.000000, 6.135213
2350.000000, 6.127426
2349.000000, 6.127901
2348.000000, 6.100871
2347.000000, 6.130689
2346.000000, 6.103586
2345.000000, 6.134892
2344.000000, 6.084914
2343.000000, 6.093570
2342.000000, 6.083488
2341.000000, 6.122588
2340.000000, 6.115246
2339.000000, 6.100594
2338.000000, 6.082611
2337.000000, 6.096391
2336.000000, 6.134352
2335.000000, 6.130449
2334.000000, 6.101909
2333.000000, 6.126869
2332.000000, 6.116464
2331.000000, 6.114320
2330.000000, 6.142777
2329.000000, 6.134703
2328.000000, 6.085349
2327.000000, 6.071159
2326.000000, 6.094530
2325.000000, 6.158074
2324.000000, 6.119679
2323.000000, 6.064523
2322.000000, 6.079740
2321.000000, 6.034007
2320.000000, 6.096483
2319.000000, 6.070889
2318.000000, 6.133139
2317.000000, 6.130490
2316.000000, 6.089292
2315.000000, 6.109444
2314.000000, 6.121574
2313.000000, 6.067667
2312.000000, 6.062945
2311.000000, 6.040250
2310.000000, 6.118164
2309.000000, 6.076861
2308.000000, 6.105350
2307.000000, 6.077227
2306.000000, 6.055592
2305.000000, 6.145340
2304.000000, 6.064611
2303.000000, 6.062161
2302.000000, 6.086698
2301.000000, 6.080483
2300.000000, 6.070939
2299.000000, 6.091319
2298.000000, 6.042199
2297.000000, 6.106433
2296.000000, 6.073435
2295.000000, 6.096626
2294.000000, 6.018601
2293.000000, 6.051607
2292.000000, 6.010088
2291.000000, 6.071944
2290.000000, 6.029315
2289.000000, 6.058087
2288.000000, 6.035344
2287.000000, 6.047677
2286.000000, 5.985825
2285.000000, 6.059932
2284.000000, 6.013154
2283.000000, 6.000647
2282.000000, 5.965348
2281.000000, 6.074060
2280.000000, 6.003767
2279.000000, 6.028091
2278.000000, 6.031234
2277.000000, 6.045520
2276.000000, 6.014436
2275.000000, 6.021215
2274.000000, 5.987284
2273.000000, 6.023382
2272.000000, 5.966674
2271.000000, 6.017174
2270.000000, 5.993487
2269.000000, 5.973286
2268.000000, 5.972260
2267.000000, 5.992217
2266.000000, 5.930918
2265.000000, 5.998493
2264.000000, 5.935795
2263.000000, 5.953730
2262.000000, 5.949255
2261.000000, 5.938640
2260.000000, 5.946432
2259.000000, 5.951531
2258.000000, 5.911666
2257.000000, 5.925283
2256.000000, 5.938204
2255.000000, 5.937794
2254.000000, 5.910080
2253.000000, 5.934336
2252.000000, 5.896093
2251.000000, 5.939878
2250.000000, 5.916256
2249.000000, 5.907693
2248.000000, 5.883107
2247.000000, 5.897561
2246.000000, 5.920817
2245.000000, 5.902405
2244.000000, 5.889118
2243.000000, 5.881295
2242.000000, 5.866978
2241.000000, 5.878923
2240.000000, 5.871714
2239.000000, 5.885194
2238.000000, 5.864103
2237.000000, 5.857569
2236.000000, 5.877957
2235.000000, 5.881222
2234.000000, 5.865971
2233.000000, 5.877110
2232.000000, 5.874690
2231.000000, 5.907048
2230.000000, 5.882042
2229.000000, 5.875380
2228.000000, 5.882235
2227.000000, 5.864186
2226.000000, 5.868737
2225.000000, 5.884312
2224.000000, 5.864002
2223.000000, 5.846246
2222.000000, 5.822930
2221.000000, 5.827406
2220.000000, 5.808975
2219.000000, 5.824961
2218.000000, 5.833846
2217.000000, 5.795277
2216.000000, 5.833915
2215.000000, 5.836574
2214.000000, 5.805742
2213.000000, 5.797809
2212.000000, 5.792693
2211.000000, 5.807837
2210.000000, 5.801147
2209.000000, 5.832263
2208.000000, 5.819815
2207.000000, 5.828793
2206.000000, 5.835475
2205.000000, 5.850210
2204.000000, 5.855902
2203.000000, 5.844445
2202.000000, 5.821933
2201.000000, 5.863983
2200.000000, 5.887428
2199.000000, 5.884311
2198.000000, 5.895180
2197.000000, 5.939277
2196.000000, 5.930714
2195.000000, 5.934353
2194.000000, 5.968482
2193.000000, 5.963699
2192.000000, 5.974607
2191.000000, 5.998510
2190.000000, 5.999236
2189.000000, 6.020686
2188.000000, 6.020989
2187.000000, 6.028551
2186.000000, 6.044319
2185.000000, 6.070768
2184.000000, 6.068211
2183.000000, 6.069273
2182.000000, 6.076960
2181.000000, 6.098245
2180.000000, 6.098589
2179.000000, 6.085597
2178.000000, 6.069931
2177.000000, 6.085941
2176.000000, 6.104566
2175.000000, 6.137529
2174.000000, 6.136908
2173.000000, 6.147203
2172.000000, 6.127572
2171.000000, 6.122332
2170.000000, 6.145173
2169.000000, 6.132223
2168.000000, 6.127374
2167.000000, 6.131430
2166.000000, 6.127188
2165.000000, 6.137319
2164.000000, 6.160205
2163.000000, 6.165061
2162.000000, 6.154735
2161.000000, 6.152785
2160.000000, 6.143682
2159.000000, 6.141025
2158.000000, 6.154105
2157.000000, 6.145757
2156.000000, 6.163031
2155.000000, 6.186559
2154.000000, 6.181321
2153.000000, 6.166552
2152.000000, 6.134980
2151.000000, 6.146065
2150.000000, 6.173379
2149.000000, 6.184736
2148.000000, 6.177137
2147.000000, 6.172076
2146.000000, 6.174221
2145.000000, 6.181077
2144.000000, 6.170250
2143.000000, 6.170819
2142.000000, 6.174487
2141.000000, 6.179289
2140.000000, 6.184746
2139.000000, 6.174239
2138.000000, 6.180028
2137.000000, 6.183788
2136.000000, 6.182607
2135.000000, 6.177171
2134.000000, 6.190155
2133.000000, 6.192419
2132.000000, 6.196219
2131.000000, 6.198411
2130.000000, 6.203580
2129.000000, 6.189657
2128.000000, 6.192068
2127.000000, 6.182962
2126.000000, 6.192294
2125.000000, 6.197128
2124.000000, 6.203564
2123.000000, 6.194380
2122.000000, 6.197826
2121.000000, 6.181307
2120.000000, 6.184955
2119.000000, 6.190739
2118.000000, 6.209032
2117.000000, 6.209759
2116.000000, 6.208743
2115.000000, 6.191202
2114.000000, 6.201118
2113.000000, 6.204848
2112.000000, 6.220098
2111.000000, 6.205932
2110.000000, 6.208445
2109.000000, 6.197393
2108.000000, 6.197589
2107.000000, 6.192053
2106.000000, 6.199577
2105.000000, 6.190188
2104.000000, 6.219980
2103.000000, 6.205939
2102.000000, 6.201416
2101.000000, 6.193599
2100.000000, 6.199109
2099.000000, 6.208689
2098.000000, 6.211556
2097.000000, 6.206575
2096.000000, 6.200100
2095.000000, 6.212465
2094.000000, 6.212126
2093.000000, 6.214421
2092.000000, 6.218786
2091.000000, 6.211468
2090.000000, 6.191276
2089.000000, 6.189546
2088.000000, 6.212002
2087.000000, 6.204916
2086.000000, 6.202535
2085.000000, 6.200764
2084.000000, 6.216959
2083.000000, 6.217042
2082.000000, 6.202222
2081.000000, 6.218857
2080.000000, 6.219860
2079.000000, 6.211102
2078.000000, 6.214040
2077.000000, 6.208970
2076.000000, 6.212095
2075.000000, 6.226965
2074.000000, 6.221599
2073.000000, 6.222058
2072.000000, 6.214571
2071.000000, 6.211768
2070.000000, 6.208414
2069.000000, 6.229431
2068.000000, 6.213107
2067.000000, 6.210358
2066.000000, 6.213495
2065.000000, 6.209713
2064.000000, 6.221432
2063.000000, 6.207705
2062.000000, 6.206828
2061.000000, 6.216467
2060.000000, 6.218717
2059.000000, 6.215760
2058.000000, 6.228238
2057.000000, 6.217018
2056.000000, 6.226019
2055.000000, 6.223852
2054.000000, 6.216875
2053.000000, 6.205195
2052.000000, 6.226984
2051.000000, 6.217108
2050.000000, 6.230925
2049.000000, 6.214939
2048.000000, 6.214319
2047.000000, 6.235421
2046.000000, 6.229552
2045.000000, 6.229329
2044.000000, 6.227545
2043.000000, 6.229671
2042.000000, 6.224590
2041.000000, 6.217021
2040.000000, 6.237163
2039.000000, 6.223519
2038.000000, 6.230047
2037.000000, 6.229422
2036.000000, 6.230534
2035.000000, 6.236939
2034.000000, 6.237289
2033.000000, 6.228027
2032.000000, 6.235592
2031.000000, 6.236639
2030.000000, 6.243946
2029.000000, 6.227450
2028.000000, 6.247576
2027.000000, 6.244647
2026.000000, 6.228934
2025.000000, 6.243749
2024.000000, 6.245300
2023.000000, 6.238151
2022.000000, 6.250755
2021.000000, 6.241497
2020.000000, 6.231455
2019.000000, 6.233211
2018.000000, 6.239927
2017.000000, 6.233648
2016.000000, 6.256764
2015.000000, 6.250538
2014.000000, 6.225414
2013.000000, 6.232154
2012.000000, 6.253369
2011.000000, 6.240293
2010.000000, 6.239875
2009.000000, 6.240381
2008.000000, 6.246715
2007.000000, 6.246519
2006.000000, 6.252391
2005.000000, 6.253054
2004.000000, 6.249095
2003.000000, 6.245254
2002.000000, 6.253580
2001.000000, 6.247550
2000.000000, 6.254827
1999.000000, 6.252145
1998.000000, 6.253000
1997.000000, 6.247388
1996.000000, 6.237551
1995.000000, 6.249445
1994.000000, 6.261161
1993.000000, 6.248790
1992.000000, 6.253491
1991.000000, 6.265321
1990.000000, 6.256463
1989.000000, 6.259635
1988.000000, 6.254989
1987.000000, 6.253629
1986.000000, 6.257275
1985.000000, 6.256523
1984.000000, 6.262770
1983.000000, 6.251583
1982.000000, 6.257323
1981.000000, 6.255038
1980.000000, 6.261406
1979.000000, 6.255378
1978.000000, 6.264056
1977.000000, 6.257245
1976.000000, 6.253706
1975.000000, 6.258129
1974.000000, 6.255131
1973.000000, 6.261489
1972.000000, 6.274561
1971.000000, 6.262452
1970.000000, 6.257737
1969.000000, 6.258558
1968.000000, 6.255066
1967.000000, 6.252894
1966.000000, 6.257097
1965.000000, 6.259460
1964.000000, 6.260517
1963.000000, 6.254006
1962.000000, 6.259002
1961.000000, 6.262716
1960.000000, 6.263359
1959.000000, 6.256429
1958.000000, 6.267173
1957.000000, 6.271316
1956.000000, 6.270303
1955.000000, 6.257364
1954.000000, 6.263845
1953.000000, 6.257754
1952.000000, 6.262658
1951.000000, 6.261212
1950.000000, 6.266992
1949.000000, 6.275007
1948.000000, 6.286383
1947.000000, 6.254944
1946.000000, 6.251714
1945.000000, 6.244504
1944.000000, 6.253167
1943.000000, 6.258339
1942.000000, 6.253449
1941.000000, 6.256475
1940.000000, 6.268928
1939.000000, 6.259384
1938.000000, 6.258090
1937.000000, 6.258933
1936.000000, 6.256426
1935.000000, 6.242423
1934.000000, 6.247681
1933.000000, 6.255349
1932.000000, 6.249410
1931.000000, 6.249143
1930.000000, 6.257016
1929.000000, 6.247847
1928.000000, 6.236751
1927.000000, 6.230441
1926.000000, 6.236027
1925.000000, 6.247976
1924.000000, 6.254856
1923.000000, 6.247951
1922.000000, 6.239394
1921.000000, 6.244307
1920.000000, 6.249076
1919.000000, 6.235599
1918.000000, 6.247236
1917.000000, 6.251227
1916.000000, 6.240686
1915.000000, 6.250795
1914.000000, 6.256644
1913.000000, 6.256706
1912.000000, 6.268054
1911.000000, 6.250688
1910.000000, 6.245682
1909.000000, 6.278937
1908.000000, 6.269989
1907.000000, 6.258940
1906.000000, 6.252436
1905.000000, 6.240388
1904.000000, 6.248087
1903.000000, 6.269177
1902.000000, 6.254911
1901.000000, 6.247108
1900.000000, 6.267326
1899.000000, 6.265090
1898.000000, 6.250588
1897.000000, 6.258817
1896.000000, 6.262929
1895.000000, 6.262157
1894.000000, 6.254364
1893.000000, 6.252533
1892.000000, 6.254664
1891.000000, 6.257275
1890.000000, 6.264401
1889.000000, 6.269434
1888.000000, 6.260455
1887.000000, 6.257651
1886.000000, 6.256511
1885.000000, 6.268081
1884.000000, 6.259703
1883.000000, 6.255103
1882.000000, 6.243054
1881.000000, 6.257929
1880.000000, 6.265972
1879.000000, 6.273182
1878.000000, 6.262495
1877.000000, 6.257666
1876.000000, 6.251784
1875.000000, 6.249685
1874.000000, 6.251856
1873.000000, 6.269575
1872.000000, 6.267044
1871.000000, 6.268499
1870.000000, 6.248011
1869.000000, 6.271593
1868.000000, 6.264551
1867.000000, 6.264356
1866.000000, 6.265520
1865.000000, 6.268962
1864.000000, 6.273237
1863.000000, 6.271212
1862.000000, 6.256805
1861.000000, 6.281608
1860.000000, 6.269058
1859.000000, 6.274368
1858.000000, 6.285315
1857.000000, 6.276365
1856.000000, 6.281240
1855.000000, 6.264920
1854.000000, 6.260903
1853.000000, 6.289635
1852.000000, 6.281277
1851.000000, 6.279919
1850.000000, 6.254839
1849.000000, 6.260301
1848.000000, 6.272743
1847.000000, 6.282704
1846.000000, 6.268468
1845.000000, 6.281676
1844.000000, 6.280340
1843.000000, 6.292812
1842.000000, 6.282852
1841.000000, 6.288955
1840.000000, 6.290394
1839.000000, 6.290416
1838.000000, 6.280009
1837.000000, 6.282038
1836.000000, 6.283431
1835.000000, 6.281673
1834.000000, 6.288915
1833.000000, 6.277862
1832.000000, 6.276134
1831.000000, 6.287869
1830.000000, 6.282608
1829.000000, 6.278128
1828.000000, 6.266457
1827.000000, 6.289136
1826.000000, 6.280881
1825.000000, 6.280105
1824.000000, 6.287697
1823.000000, 6.285827
1822.000000, 6.276049
1821.000000, 6.274342
1820.000000, 6.277466
1819.000000, 6.270989
1818.000000, 6.274794
1817.000000, 6.277196
1816.000000, 6.270727
1815.000000, 6.282072
1814.000000, 6.283825
1813.000000, 6.288357
1812.000000, 6.272716
1811.000000, 6.271362
1810.000000, 6.275481
1809.000000, 6.295196
1808.000000, 6.261435
1807.000000, 6.294039
1806.000000, 6.266823
1805.000000, 6.277687
1804.000000, 6.269359
1803.000000, 6.278543
1802.000000, 6.259383
1801.000000, 6.277261
1800.000000, 6.288639
1799.000000, 6.273055
1798.000000, 6.260217
1797.000000, 6.295445
1796.000000, 6.291431
1795.000000, 6.283203
1794.000000, 6.285096
1793.000000, 6.283555
1792.000000, 6.277383
1791.000000, 6.266431
1790.000000, 6.258358
1789.000000, 6.280696
1788.000000, 6.260598
1787.000000, 6.311321
1786.000000, 6.262729
1785.000000, 6.297283
1784.000000, 6.266284
1783.000000, 6.285805
1782.000000, 6.276168
1781.000000, 6.289236
1780.000000, 6.270067
1779.000000, 6.254765
1778.000000, 6.284159
1777.000000, 6.289004
1776.000000, 6.286709
1775.000000, 6.279372
1774.000000, 6.266989
1773.000000, 6.276388
1772.000000, 6.279341
1771.000000, 6.279198
1770.000000, 6.276475
1769.000000, 6.287547
1768.000000, 6.268456
1767.000000, 6.293190
1766.000000, 6.253746
1765.000000, 6.272377
1764.000000, 6.254224
1763.000000, 6.279060
1762.000000, 6.286405
1761.000000, 6.290527
1760.000000, 6.257872
1759.000000, 6.270353
1758.000000, 6.278272
1757.000000, 6.294625
1756.000000, 6.290039
1755.000000, 6.278954
1754.000000, 6.254992
1753.000000, 6.272271
1752.000000, 6.270359
1751.000000, 6.287032
1750.000000, 6.276187
1749.000000, 6.281885
1748.000000, 6.287764
1747.000000, 6.273196
1746.000000, 6.286290
1745.000000, 6.281009
1744.000000, 6.272251
1743.000000, 6.280602
1742.000000, 6.274093
1741.000000, 6.280119
1740.000000, 6.280986
1739.000000, 6.286905
1738.000000, 6.260133
1737.000000, 6.268806
1736.000000, 6.281355
1735.000000, 6.270429
1734.000000, 6.271054
1733.000000, 6.281226
1732.000000, 6.279882
1731.000000, 6.296764
1730.000000, 6.267006
1729.000000, 6.285452
1728.000000, 6.279956
1727.000000, 6.265362
1726.000000, 6.272945
1725.000000, 6.281408
1724.000000, 6.292428
1723.000000, 6.285735
1722.000000, 6.269504
1721.000000, 6.293856
1720.000000, 6.297253
1719.000000, 6.295663
1718.000000, 6.298814
1717.000000, 6.277149
1716.000000, 6.279616
1715.000000, 6.271220
1714.000000, 6.279399
1713.000000, 6.298369
1712.000000, 6.275730
1711.000000, 6.268325
1710.000000, 6.271209
1709.000000, 6.276609
1708.000000, 6.295901
1707.000000, 6.291363
1706.000000, 6.281961
1705.000000, 6.289999
1704.000000, 6.274191
1703.000000, 6.276923
1702.000000, 6.275283
1701.000000, 6.282615
1700.000000, 6.279367
1699.000000, 6.265840
1698.000000, 6.276715
1697.000000, 6.275978
1696.000000, 6.275851
1695.000000, 6.289746
1694.000000, 6.281307
1693.000000, 6.282735
1692.000000, 6.285725
1691.000000, 6.282065
1690.000000, 6.282802
1689.000000, 6.291198
1688.000000, 6.285611
1687.000000, 6.282123
1686.000000, 6.276496
1685.000000, 6.280932
1684.000000, 6.289602
1683.000000, 6.293226
1682.000000, 6.281976
1681.000000, 6.276619
1680.000000, 6.272680
1679.000000, 6.282379
1678.000000, 6.280819
1677.000000, 6.280689
1676.000000, 6.277128
1675.000000, 6.278590
1674.000000, 6.288199
1673.000000, 6.292385
1672.000000, 6.279271
1671.000000, 6.268837
1670.000000, 6.286980
1669.000000, 6.304643
1668.000000, 6.300612
1667.000000, 6.293459
1666.000000, 6.282527
1665.000000, 6.284961
1664.000000, 6.288528
1663.000000, 6.299023
1662.000000, 6.301288
1661.000000, 6.293010
1660.000000, 6.289803
1659.000000, 6.296089
1658.000000, 6.291570
1657.000000, 6.274199
1656.000000, 6.275847
1655.000000, 6.276834
1654.000000, 6.283661
1653.000000, 6.293603
1652.000000, 6.290534
1651.000000, 6.286665
1650.000000, 6.284487
1649.000000, 6.288686
1648.000000, 6.293357
1647.000000, 6.288288
1646.000000, 6.286340
1645.000000, 6.296434
1644.000000, 6.289971
1643.000000, 6.282413
1642.000000, 6.285412
1641.000000, 6.293176
1640.000000, 6.298496
1639.000000, 6.290110
1638.000000, 6.293138
1637.000000, 6.284363
1636.000000, 6.278587
1635.000000, 6.278644
1634.000000, 6.284846
1633.000000, 6.284750
1632.000000, 6.279537
1631.000000, 6.277487
1630.000000, 6.278040
1629.000000, 6.293036
1628.000000, 6.297589
1627.000000, 6.285712
1626.000000, 6.284803
1625.000000, 6.286945
1624.000000, 6.287231
1623.000000, 6.292259
1622.000000, 6.289225
1621.000000, 6.276992
1620.000000, 6.286389
1619.000000, 6.291787
1618.000000, 6.287375
1617.000000, 6.288294
1616.000000, 6.279688
1615.000000, 6.282281
1614.000000, 6.300701
1613.000000, 6.304356
1612.000000, 6.283444
1611.000000, 6.290050
1610.000000, 6.291863
1609.000000, 6.298043
1608.000000, 6.296614
1607.000000, 6.287166
1606.000000, 6.296934
1605.000000, 6.287742
1604.000000, 6.278326
1603.000000, 6.279549
1602.000000, 6.288326
1601.000000, 6.293697
1600.000000, 6.283514
1599.000000, 6.282131
1598.000000, 6.294122
1597.000000, 6.289324
1596.000000, 6.295762
1595.000000, 6.296138
1594.000000, 6.307162
1593.000000, 6.296357
1592.000000, 6.285275
1591.000000, 6.281576
1590.000000, 6.279527
1589.000000, 6.293206
1588.000000, 6.298932
1587.000000, 6.290821
1586.000000, 6.292384
1585.000000, 6.292572
1584.000000, 6.294787
1583.000000, 6.292297
1582.000000, 6.295502
1581.000000, 6.282759
1580.000000, 6.290039
1579.000000, 6.291632
1578.000000, 6.296423
1577.000000, 6.279087
1576.000000, 6.284366
1575.000000, 6.281068
1574.000000, 6.287927
1573.000000, 6.296374
1572.000000, 6.297598
1571.000000, 6.293760
1570.000000, 6.305259
1569.000000, 6.288020
1568.000000, 6.293841
1567.000000, 6.284296
1566.000000, 6.267933
1565.000000, 6.283049
1564.000000, 6.291117
1563.000000, 6.305604
1562.000000, 6.307862
1561.000000, 6.284640
1560.000000, 6.289588
1559.000000, 6.285517
1558.000000, 6.300749
1557.000000, 6.287434
1556.000000, 6.288667
1555.000000, 6.280907
1554.000000, 6.300201
1553.000000, 6.295878
1552.000000, 6.297370
1551.000000, 6.299501
1550.000000, 6.299512
1549.000000, 6.292268
1548.000000, 6.291611
1547.000000, 6.286703
1546.000000, 6.283787
1545.000000, 6.279331
1544.000000, 6.294363
1543.000000, 6.296768
1542.000000, 6.290364
1541.000000, 6.292996
1540.000000, 6.310348
1539.000000, 6.301779
1538.000000, 6.285332
1537.000000, 6.297226
1536.000000, 6.289185
1535.000000, 6.282835
1534.000000, 6.293587
1533.000000, 6.292271
1532.000000, 6.289034
1531.000000, 6.279585
1530.000000, 6.290982
1529.000000, 6.295312
1528.000000, 6.303332
1527.000000, 6.304733
1526.000000, 6.294769
1525.000000, 6.297723
1524.000000, 6.291424
1523.000000, 6.294869
1522.000000, 6.305854
1521.000000, 6.292428
1520.000000, 6.313036
1519.000000, 6.291873
1518.000000, 6.307022
1517.000000, 6.282475
1516.000000, 6.300117
1515.000000, 6.295464
1514.000000, 6.302872
1513.000000, 6.297816
1512.000000, 6.302514
1511.000000, 6.291985
1510.000000, 6.286728
1509.000000, 6.296344
1508.000000, 6.298352
1507.000000, 6.290322
1506.000000, 6.297861
1505.000000, 6.308164
1504.000000, 6.287960
1503.000000, 6.291026
1502.000000, 6.304772
1501.000000, 6.292698
1500.000000, 6.292195
1499.000000, 6.289431
1498.000000, 6.296316
1497.000000, 6.292394
1496.000000, 6.297277
1495.000000, 6.286219
1494.000000, 6.300645
1493.000000, 6.295278
1492.000000, 6.293513
1491.000000, 6.293611
1490.000000, 6.290522
1489.000000, 6.303478
1488.000000, 6.298807
1487.000000, 6.296270
1486.000000, 6.286894
1485.000000, 6.288350
1484.000000, 6.287192
1483.000000, 6.295639
1482.000000, 6.304235
1481.000000, 6.296476
1480.000000, 6.292993
1479.000000, 6.296071
1478.000000, 6.300459
1477.000000, 6.291149
1476.000000, 6.292546
1475.000000, 6.294889
1474.000000, 6.307307
1473.000000, 6.306513
1472.000000, 6.292700
1471.000000, 6.292173
1470.000000, 6.302801
1469.000000, 6.305370
1468.000000, 6.300815
1467.000000, 6.290009
1466.000000, 6.301147
1465.000000, 6.295253
1464.000000, 6.297858
1463.000000, 6.296490
1462.000000, 6.292136
1461.000000, 6.292505
1460.000000, 6.293085
1459.000000, 6.296431
1458.000000, 6.304533
1457.000000, 6.302864
1456.000000, 6.299856
1455.000000, 6.299655
1454.000000, 6.299649
1453.000000, 6.298106
1452.000000, 6.296584
1451.000000, 6.298045
1450.000000, 6.301129
1449.000000, 6.301643
1448.000000, 6.296088
1447.000000, 6.304467
1446.000000, 6.304112
1445.000000, 6.298165
1444.000000, 6.293501
1443.000000, 6.298672
1442.000000, 6.305384
1441.000000, 6.297174
1440.000000, 6.303721
1439.000000, 6.300228
1438.000000, 6.297524
1437.000000, 6.299413
1436.000000, 6.298201
1435.000000, 6.297434
1434.000000, 6.296994
1433.000000, 6.301092
1432.000000, 6.305328
1431.000000, 6.298409
1430.000000, 6.295508
1429.000000, 6.293477
1428.000000, 6.294715
1427.000000, 6.298200
1426.000000, 6.298904
1425.000000, 6.295112
1424.000000, 6.290034
1423.000000, 6.284694
1422.000000, 6.297448
1421.000000, 6.304337
1420.000000, 6.295128
1419.000000, 6.289319
1418.000000, 6.288158
1417.000000, 6.288204
1416.000000, 6.291570
1415.000000, 6.293619
1414.000000, 6.290195
1413.000000, 6.282534
1412.000000, 6.285112
1411.000000, 6.290775
1410.000000, 6.282648
1409.000000, 6.273991
1408.000000, 6.275524
1407.000000, 6.276572
1406.000000, 6.278401
1405.000000, 6.283643
1404.000000, 6.285599
1403.000000, 6.269629
1402.000000, 6.261986
1401.000000, 6.258607
1400.000000, 6.257200
1399.000000, 6.252899
1398.000000, 6.252136
1397.000000, 6.254912
1396.000000, 6.252268
1395.000000, 6.252455
1394.000000, 6.243990
1393.000000, 6.239141
1392.000000, 6.235140
1391.000000, 6.230537
1390.000000, 6.223055
1389.000000, 6.218087
1388.000000, 6.222428
1387.000000, 6.220086
1386.000000, 6.218250
1385.000000, 6.216898
1384.000000, 6.214844
1383.000000, 6.222812
1382.000000, 6.225471
1381.000000, 6.228705
1380.000000, 6.224340
1379.000000, 6.218778
1378.000000, 6.229128
1377.000000, 6.238753
1376.000000, 6.235556
1375.000000, 6.234834
1374.000000, 6.241514
1373.000000, 6.252050
1372.000000, 6.262082
1371.000000, 6.263364
1370.000000, 6.260845
1369.000000, 6.267680
1368.000000, 6.268359
1367.000000, 6.278242
1366.000000, 6.283367
1365.000000, 6.294192
1364.000000, 6.293612
1363.000000, 6.300182
1362.000000, 6.305758
1361.000000, 6.302313
1360.000000, 6.299750
1359.000000, 6.303523
1358.000000, 6.310327
1357.000000, 6.312997
1356.000000, 6.311480
1355.000000, 6.306718
1354.000000, 6.300419
1353.000000, 6.305242
1352.000000, 6.311384
1351.000000, 6.306052
1350.000000, 6.295257
1349.000000, 6.299543
1348.000000, 6.311910
1347.000000, 6.304470
1346.000000, 6.300660
1345.000000, 6.299528
1344.000000, 6.296781
1343.000000, 6.303274
1342.000000, 6.300099
1341.000000, 6.300477
1340.000000, 6.295026
1339.000000, 6.295793
1338.000000, 6.295751
1337.000000, 6.290515
1336.000000, 6.294649
1335.000000, 6.295398
1334.000000, 6.288368
1333.000000, 6.299815
1332.000000, 6.295718
1331.000000, 6.298714
1330.000000, 6.303271
1329.000000, 6.294133
1328.000000, 6.290984
1327.000000, 6.303950
1326.000000, 6.302592
1325.000000, 6.296366
1324.000000, 6.294365
1323.000000, 6.307901
1322.000000, 6.299314
1321.000000, 6.297144
1320.000000, 6.294881
1319.000000, 6.300629
1318.000000, 6.305196
1317.000000, 6.306598
1316.000000, 6.298243
1315.000000, 6.300154
1314.000000, 6.302442
1313.000000, 6.295402
1312.000000, 6.301541
1311.000000, 6.301960
1310.000000, 6.304756
1309.000000, 6.303528
1308.000000, 6.304297
1307.000000, 6.308391
1306.000000, 6.299296
1305.000000, 6.310157
1304.000000, 6.300463
1303.000000, 6.298515
1302.000000, 6.301508
1301.000000, 6.298454
1300.000000, 6.298396
1299.000000, 6.295646
1298.000000, 6.307128
1297.000000, 6.305241
1296.000000, 6.300311
1295.000000, 6.304504
1294.000000, 6.298121
1293.000000, 6.304405
1292.000000, 6.302414
1291.000000, 6.306129
1290.000000, 6.296295
1289.000000, 6.295613
1288.000000, 6.298266
1287.000000, 6.302168
1286.000000, 6.296995
1285.000000, 6.303682
1284.000000, 6.295171
1283.000000, 6.307773
1282.000000, 6.290351
1281.000000, 6.299859
1280.000000, 6.304391
1279.000000, 6.293760
1278.000000, 6.291157
1277.000000, 6.292541
1276.000000, 6.295475
1275.000000, 6.302343
1274.000000, 6.298387
1273.000000, 6.299378
1272.000000, 6.299011
1271.000000, 6.305278
1270.000000, 6.300989
1269.000000, 6.306305
1268.000000, 6.297484
1267.000000, 6.297406
1266.000000, 6.307869
1265.000000, 6.294701
1264.000000, 6.299475
1263.000000, 6.296828
1262.000000, 6.300828
1261.000000, 6.298438
1260.000000, 6.295237
1259.000000, 6.290339
1258.000000, 6.180427
1257.000000, 6.304743
1256.000000, 6.296564
1255.000000, 6.303310
1254.000000, 6.292004
1253.000000, 6.293633
1252.000000, 6.297683
1251.000000, 6.298142
1250.000000, 6.297651
1249.000000, 6.298517
1248.000000, 6.301896
1247.000000, 6.292942
1246.000000, 6.294483
1245.000000, 6.298925
1244.000000, 6.297603
1243.000000, 6.296341
1242.000000, 6.296141
1241.000000, 6.296863
1240.000000, 6.298502
1239.000000, 6.296786
1238.000000, 6.295523
1237.000000, 6.298725
1236.000000, 6.307317
1235.000000, 6.307518
1234.000000, 6.299704
1233.000000, 6.298310
1232.000000, 6.306469
1231.000000, 6.308755
1230.000000, 6.297624
1229.000000, 6.304556
1228.000000, 6.310880
1227.000000, 6.311235
1226.000000, 6.309340
1225.000000, 6.308634
1224.000000, 6.307790
1223.000000, 6.311615
1222.000000, 6.311526
1221.000000, 6.311201
1220.000000, 6.310475
1219.000000, 6.304433
1218.000000, 6.303979
1217.000000, 6.306430
1216.000000, 6.301527
1215.000000, 6.306296
1214.000000, 6.309535
1213.000000, 6.308281
1212.000000, 6.310590
1211.000000, 6.308134
1210.000000, 6.305811
1209.000000, 6.306801
1208.000000, 6.306368
1207.000000, 6.314605
1206.000000, 6.303861
1205.000000, 6.305923
1204.000000, 6.306894
1203.000000, 6.311850
1202.000000, 6.307555
1201.000000, 6.306005
1200.000000, 6.301267
1199.000000, 6.306549
1198.000000, 6.308372
1197.000000, 6.305719
1196.000000, 6.306770
1195.000000, 6.312904
1194.000000, 6.311565
1193.000000, 6.308575
1192.000000, 6.305481
1191.000000, 6.304582
1190.000000, 6.301947
1189.000000, 6.305873
1188.000000, 6.306983
1187.000000, 6.306768
1186.000000, 6.309240
1185.000000, 6.313516
1184.000000, 6.311944
1183.000000, 6.309533
1182.000000, 6.307359
1181.000000, 6.307951
1180.000000, 6.308888
1179.000000, 6.314020
1178.000000, 6.313429
1177.000000, 6.308837
1176.000000, 6.310730
1175.000000, 6.316883
1174.000000, 6.315040
1173.000000, 6.316966
1172.000000, 6.311801
1171.000000, 6.311457
1170.000000, 6.314871
1169.000000, 6.313586
1168.000000, 6.311891
1167.000000, 6.314604
1166.000000, 6.311515
1165.000000, 6.312674
1164.000000, 6.316774
1163.000000, 6.314767
1162.000000, 6.313251
1161.000000, 6.318478
1160.000000, 6.319237
1159.000000, 6.317174
1158.000000, 6.317722
1157.000000, 6.322599
1156.000000, 6.319449
1155.000000, 6.317230
1154.000000, 6.318596
1153.000000, 6.320471
1152.000000, 6.317446
1151.000000, 6.315372
1150.000000, 6.316881
1149.000000, 6.317954
1148.000000, 6.319056
1147.000000, 6.323877
1146.000000, 6.325065
1145.000000, 6.321114
1144.000000, 6.313944
1143.000000, 6.314165
1142.000000, 6.323568
1141.000000, 6.325212
1140.000000, 6.325372
1139.000000, 6.322626
1138.000000, 6.320939
1137.000000, 6.326797
1136.000000, 6.328223
1135.000000, 6.331162
1134.000000, 6.331939
1133.000000, 6.321604
1132.000000, 6.319663
1131.000000, 6.318753
1130.000000, 6.317634
1129.000000, 6.325339
1128.000000, 6.329790
1127.000000, 6.330021
1126.000000, 6.329693
1125.000000, 6.327762
1124.000000, 6.326222
1123.000000, 6.327370
1122.000000, 6.323301
1121.000000, 6.326126
1120.000000, 6.325680
1119.000000, 6.325646
1118.000000, 6.324370
1117.000000, 6.327613
1116.000000, 6.330165
1115.000000, 6.323838
1114.000000, 6.330687
1113.000000, 6.332937
1112.000000, 6.327704
1111.000000, 6.329392
1110.000000, 6.327195
1109.000000, 6.327669
1108.000000, 6.324216
1107.000000, 6.328890
1106.000000, 6.328875
1105.000000, 6.324634
1104.000000, 6.328915
1103.000000, 6.333820
1102.000000, 6.332350
1101.000000, 6.328331
1100.000000, 6.329986
1099.000000, 6.328087
1098.000000, 6.329242
1097.000000, 6.329619
1096.000000, 6.331550
1095.000000, 6.329343
1094.000000, 6.333330
1093.000000, 6.336548
1092.000000, 6.337078
1091.000000, 6.333410
1090.000000, 6.334459
1089.000000, 6.333385
1088.000000, 6.340778
1087.000000, 6.328854
1086.000000, 6.337614
1085.000000, 6.332619
1084.000000, 6.337143
1083.000000, 6.335552
1082.000000, 6.332664
1081.000000, 6.330998
1080.000000, 6.343854
1079.000000, 6.326152
1078.000000, 6.320769
1077.000000, 6.322377
1076.000000, 6.332628
1075.000000, 6.337909
1074.000000, 6.352439
1073.000000, 6.341888
1072.000000, 6.334037
1071.000000, 6.334896
1070.000000, 6.344228
1069.000000, 6.339767
1068.000000, 6.350347
1067.000000, 6.331215
1066.000000, 6.343877
1065.000000, 6.338740
1064.000000, 6.346338
1063.000000, 6.333418
1062.000000, 6.340055
1061.000000, 6.331961
1060.000000, 6.337348
1059.000000, 6.338168
1058.000000, 6.345429
1057.000000, 6.336073
1056.000000, 6.333942
1055.000000, 6.339127
1054.000000, 6.351602
1053.000000, 6.349778
1052.000000, 6.346106
1051.000000, 6.342555
1050.000000, 6.333511
1049.000000, 6.341248
1048.000000, 6.350726
1047.000000, 6.340748
1046.000000, 6.337205
1045.000000, 6.335973
1044.000000, 6.349967
1043.000000, 6.354996
1042.000000, 6.355294
1041.000000, 6.342800
1040.000000, 6.349061
1039.000000, 6.352118
1038.000000, 6.343068
1037.000000, 6.340361
1036.000000, 6.341703
1035.000000, 6.342330
1034.000000, 6.346045
1033.000000, 6.339355
1032.000000, 6.347783
1031.000000, 6.346047
1030.000000, 6.339159
1029.000000, 6.348717
1028.000000, 6.352744
1027.000000, 6.350152
1026.000000, 6.348162
1025.000000, 6.348108
1024.000000, 6.350517
1023.000000, 6.347003
1022.000000, 6.347055
1021.000000, 6.336747
1020.000000, 6.350561
1019.000000, 6.357979
1018.000000, 6.354424
1017.000000, 6.362121
1016.000000, 6.349770
1015.000000, 6.345531
1014.000000, 6.354130
1013.000000, 6.356709
1012.000000, 6.365000
1011.000000, 6.348679
1010.000000, 6.361356
1009.000000, 6.355816
1008.000000, 6.360862
1007.000000, 6.336682
1006.000000, 6.350349
1005.000000, 6.354966
1004.000000, 6.366320
1003.000000, 6.353567
1002.000000, 6.368286
1001.000000, 6.333361
1000.000000, 6.359804
999.000000, 6.355052
998.000000, 6.349099
997.000000, 6.355455
996.000000, 6.363011
995.000000, 6.354854
994.000000, 6.352586
993.000000, 6.352770
992.000000, 6.348556
991.000000, 6.370338
990.000000, 6.375659
989.000000, 6.356437
988.000000, 6.370508
987.000000, 6.363017
986.000000, 6.369088
985.000000, 6.352904
984.000000, 6.364930
983.000000, 6.357121
982.000000, 6.359072
981.000000, 6.359175
980.000000, 6.366543
979.000000, 6.368254
978.000000, 6.372187
977.000000, 6.360817
976.000000, 6.367894
975.000000, 6.369047
974.000000, 6.367442
973.000000, 6.372021
972.000000, 6.367352
971.000000, 6.361402
970.000000, 6.371930
969.000000, 6.347220
968.000000, 6.387975
967.000000, 6.364113
966.000000, 6.360414
965.000000, 6.360151
964.000000, 6.386126
963.000000, 6.379859
962.000000, 6.384602
961.000000, 6.373655
960.000000, 6.372005
959.000000, 6.385395
958.000000, 6.379190
957.000000, 6.377486
956.000000, 6.382461
955.000000, 6.372652
954.000000, 6.379927
953.000000, 6.385721
952.000000, 6.352738
951.000000, 6.361404
950.000000, 6.380819
949.000000, 6.393745
948.000000, 6.380932
947.000000, 6.381198
946.000000, 6.388516
945.000000, 6.371319
944.000000, 6.373446
943.000000, 6.375143
942.000000, 6.380204
941.000000, 6.370171
940.000000, 6.377019
939.000000, 6.399845
938.000000, 6.390859
937.000000, 6.387062
936.000000, 6.386735
935.000000, 6.365659
934.000000, 6.370350
933.000000, 6.402975
932.000000, 6.399098
931.000000, 6.379536
930.000000, 6.401028
929.000000, 6.387515
928.000000, 6.393929
927.000000, 6.399700
926.000000, 6.399566
925.000000, 6.392676
924.000000, 6.393195
923.000000, 6.405584
922.000000, 6.398936
921.000000, 6.372694
920.000000, 6.375263
919.000000, 6.398995
918.000000, 6.410590
917.000000, 6.387001
916.000000, 6.405707
915.000000, 6.403186
914.000000, 6.420424
913.000000, 6.418413
912.000000, 6.394819
911.000000, 6.402910
910.000000, 6.418426
909.000000, 6.385928
908.000000, 6.399404
907.000000, 6.420849
906.000000, 6.397533
905.000000, 6.407300
904.000000, 6.436045
903.000000, 6.446920
902.000000, 6.417954
901.000000, 6.374597
900.000000, 6.424013
899.000000, 6.427715
898.000000, 6.424929
897.000000, 6.427094
896.000000, 6.417959
895.000000, 6.374946
894.000000, 6.406627
893.000000, 6.399202
892.000000, 6.383741
891.000000, 6.393271
890.000000, 6.405922
889.000000, 6.689030
888.000000, 6.689093
887.000000, 6.689228
886.000000, 6.688072
885.000000, 6.690375
884.000000, 6.688695
883.000000, 6.690058
882.000000, 6.690078
881.000000, 6.686271
880.000000, 6.689271
879.000000, 6.689924
878.000000, 6.692060
877.000000, 6.690741
876.000000, 6.692115
875.000000, 6.693918
874.000000, 6.692288
873.000000, 6.691581
872.000000, 6.692682
871.000000, 6.693326
870.000000, 6.692903
869.000000, 6.693819
868.000000, 6.695077
867.000000, 6.693122
866.000000, 6.692486
865.000000, 6.693902
864.000000, 6.692198
863.000000, 6.693631
862.000000, 6.693268
861.000000, 6.695356
860.000000, 6.692311
859.000000, 6.695341
858.000000, 6.694614
857.000000, 6.693196
856.000000, 6.695119
855.000000, 6.695750
854.000000, 6.696802
853.000000, 6.698065
852.000000, 6.696793
851.000000, 6.694895
850.000000, 6.697708
849.000000, 6.696276
848.000000, 6.698612
847.000000, 6.697950
846.000000, 6.698767
845.000000, 6.698765
844.000000, 6.700671
843.000000, 6.699208
842.000000, 6.697217
841.000000, 6.697920
840.000000, 6.698530
839.000000, 6.697962
838.000000, 6.697594
837.000000, 6.697678
836.000000, 6.698384
835.000000, 6.699874
834.000000, 6.702190
833.000000, 6.697928
832.000000, 6.698673
831.000000, 6.699611
830.000000, 6.701299
829.000000, 6.702068
828.000000, 6.701484
827.000000, 6.700690
826.000000, 6.701491
825.000000, 6.703167
824.000000, 6.702809
823.000000, 6.701943
822.000000, 6.702452
821.000000, 6.702651
820.000000, 6.706106
819.000000, 6.703611
818.000000, 6.700830
817.000000, 6.702967
816.000000, 6.705987
815.000000, 6.705931
814.000000, 6.706720
813.000000, 6.705652
812.000000, 6.707069
811.000000, 6.708272
810.000000, 6.708044
809.000000, 6.707990
808.000000, 6.706788
807.000000, 6.707023
806.000000, 6.707999
805.000000, 6.710157
804.000000, 6.711787
803.000000, 6.708691
802.000000, 6.707961
801.000000, 6.709695
800.000000, 6.711643
799.000000, 6.712411
798.000000, 6.710388
797.000000, 6.709368
796.000000, 6.711000
795.000000, 6.712057
794.000000, 6.712319
793.000000, 6.710917
792.000000, 6.710232
791.000000, 6.712297
790.000000, 6.714841
789.000000, 6.715195
788.000000, 6.713081
787.000000, 6.715020
786.000000, 6.716273
785.000000, 6.715606
784.000000, 6.716578
783.000000, 6.717504
782.000000, 6.716630
781.000000, 6.717639
780.000000, 6.718290
779.000000, 6.719788
778.000000, 6.718615
777.000000, 6.718448
776.000000, 6.718380
775.000000, 6.718834
774.000000, 6.720150
773.000000, 6.720942
772.000000, 6.720895
771.000000, 6.720081
770.000000, 6.719634
769.000000, 6.720256
768.000000, 6.721673
767.000000, 6.721388
766.000000, 6.723183
765.000000, 6.725210
764.000000, 6.724511
763.000000, 6.723526
762.000000, 6.724261
761.000000, 6.725143
760.000000, 6.725180
759.000000, 6.725019
758.000000, 6.726094
757.000000, 6.727118
756.000000, 6.726945
755.000000, 6.727987
754.000000, 6.728354
753.000000, 6.727711
752.000000, 6.728485
751.000000, 6.729667
750.000000, 6.729844
749.000000, 6.728771
748.000000, 6.728572
747.000000, 6.729637
746.000000, 6.729578
745.000000, 6.729425
744.000000, 6.731392
743.000000, 6.732523
742.000000, 6.734500
741.000000, 6.734008
740.000000, 6.732763
739.000000, 6.733312
738.000000, 6.733101
737.000000, 6.733386
736.000000, 6.736769
735.000000, 6.736780
734.000000, 6.734226
733.000000, 6.734535
732.000000, 6.736911
731.000000, 6.736383
730.000000, 6.736049
729.000000, 6.736918
728.000000, 6.737258
727.000000, 6.738530
726.000000, 6.739276
725.000000, 6.737837
724.000000, 6.738833
723.000000, 6.740432
722.000000, 6.740732
721.000000, 6.741181
720.000000, 6.743037
719.000000, 6.743568
718.000000, 6.743166
717.000000, 6.744343
716.000000, 6.745654
715.000000, 6.745126
714.000000, 6.744896
713.000000, 6.745182
712.000000, 6.744427
711.000000, 6.745623
710.000000, 6.748306
709.000000, 6.747780
708.000000, 6.747585
707.000000, 6.747979
706.000000, 6.748334
705.000000, 6.748693
704.000000, 6.748537
703.000000, 6.750559
702.000000, 6.751393
701.000000, 6.750844
700.000000, 6.751957
699.000000, 6.752352
698.000000, 6.752573
697.000000, 6.752777
696.000000, 6.754033
695.000000, 6.754046
694.000000, 6.754592
693.000000, 6.755804
692.000000, 6.754882
691.000000, 6.755029
690.000000, 6.756165
689.000000, 6.756389
688.000000, 6.757234
687.000000, 6.758314
686.000000, 6.758639
685.000000, 6.758743
684.000000, 6.759573
683.000000, 6.759012
682.000000, 6.761270
681.000000, 6.761165
680.000000, 6.762282
679.000000, 6.762726
678.000000, 6.764140
677.000000, 6.763227
676.000000, 6.765267
675.000000, 6.765449
674.000000, 6.765228
673.000000, 6.765814
672.000000, 6.768373
671.000000, 6.766904
670.000000, 6.768036
669.000000, 6.768111
668.000000, 6.769124
667.000000, 6.768717
666.000000, 6.770707
665.000000, 6.771507
664.000000, 6.772138
663.000000, 6.773192
662.000000, 6.771608
661.000000, 6.773678
660.000000, 6.775842
659.000000, 6.774683
658.000000, 6.774604
657.000000, 6.776335
656.000000, 6.778130
655.000000, 6.776945
654.000000, 6.777280
653.000000, 6.779534
652.000000, 6.777772
651.000000, 6.778785
650.000000, 6.779687
649.000000, 6.782127
648.000000, 6.782250
647.000000, 6.782334
646.000000, 6.784157
645.000000, 6.784861
644.000000, 6.784226
643.000000, 6.787637
642.000000, 6.786065
641.000000, 6.786885
640.000000, 6.786800
639.000000, 6.789594
638.000000, 6.790490
637.000000, 6.790207
636.000000, 6.791509
635.000000, 6.789498
634.000000, 6.794456
633.000000, 6.793813
632.000000, 6.794422
631.000000, 6.794448
630.000000, 6.795918
629.000000, 6.796082
628.000000, 6.797073
627.000000, 6.797385
626.000000, 6.798225
625.000000, 6.799509
624.000000, 6.799587
623.000000, 6.801106
622.000000, 6.801568
621.000000, 6.801359
620.000000, 6.801888
619.000000, 6.804812
618.000000, 6.805933
617.000000, 6.806403
616.000000, 6.807804
615.000000, 6.810310
614.000000, 6.808926
613.000000, 6.809473
612.000000, 6.811001
611.000000, 6.810798
610.000000, 6.810703
609.000000, 6.815567
608.000000, 6.814021
607.000000, 6.813925
606.000000, 6.813917
605.000000, 6.816801
604.000000, 6.817722
603.000000, 6.818550
602.000000, 6.818696
601.000000, 6.820320
600.000000, 6.821556
599.000000, 6.821365
598.000000, 6.822878
597.000000, 6.824416
596.000000, 6.823871
595.000000, 6.825487
594.000000, 6.827577
593.000000, 6.829589
592.000000, 6.831115
591.000000, 6.830216
590.000000, 6.832240
589.000000, 6.834076
588.000000, 6.834249
587.000000, 6.835692
586.000000, 6.836219
585.000000, 6.838814
584.000000, 6.839269
583.000000, 6.840320
582.000000, 6.840762
581.000000, 6.842336
580.000000, 6.843928
579.000000, 6.844887
578.000000, 6.846428
577.000000, 6.848135
576.000000, 6.846939
575.000000, 6.850251
574.000000, 6.851574
573.000000, 6.851699
572.000000, 6.853161
571.000000, 6.855242
570.000000, 6.856949
569.000000, 6.858451
568.000000, 6.858348
567.000000, 6.860350
566.000000, 6.861976
565.000000, 6.862581
564.000000, 6.864639
563.000000, 6.865259
562.000000, 6.866159
561.000000, 6.868546
560.000000, 6.870177
559.000000, 6.872632
558.000000, 6.873736
557.000000, 6.875128
556.000000, 6.875011
555.000000, 6.876888
554.000000, 6.878679
553.000000, 6.881032
552.000000, 6.882720
551.000000, 6.884006
550.000000, 6.884689
549.000000, 6.887150
548.000000, 6.888115
547.000000, 6.889311
546.000000, 6.890123
545.000000, 6.892267
544.000000, 6.894734
543.000000, 6.895813
542.000000, 6.897556
541.000000, 6.899158
540.000000, 6.899779
539.000000, 6.901627
538.000000, 6.902594
537.000000, 6.905218
536.000000, 6.905914
535.000000, 6.907522
534.000000, 6.908258
533.000000, 6.910620
532.000000, 6.911431
531.000000, 6.912318
530.000000, 6.914297
529.000000, 6.917781
528.000000, 6.917789
527.000000, 6.918851
526.000000, 6.921251
525.000000, 6.924220
524.000000, 6.925008
523.000000, 6.925145
522.000000, 6.925477
521.000000, 6.926291
520.000000, 6.926830
519.000000, 6.928568
518.000000, 6.929055
517.000000, 6.929493
516.000000, 6.930820
515.000000, 6.931039
514.000000, 6.931284
513.000000, 6.931371
512.000000, 6.929901
511.000000, 6.929571
510.000000, 6.929591
509.000000, 6.928294
508.000000, 6.927709
507.000000, 6.927430
506.000000, 6.925146
505.000000, 6.923752
504.000000, 6.921703
503.000000, 6.919459
502.000000, 6.919169
501.000000, 6.917432
500.000000, 6.914540
499.000000, 6.912201
498.000000, 6.910850
497.000000, 6.909903
496.000000, 6.908470
495.000000, 6.908926
494.000000, 6.908529
493.000000, 6.907558
492.000000, 6.908925
491.000000, 6.912436
490.000000, 6.913335
489.000000, 6.915117
488.000000, 6.920018
487.000000, 6.925093
486.000000, 6.929993
485.000000, 6.935112
484.000000, 6.940859
483.000000, 6.947186
482.000000, 6.952334
481.000000, 6.958558
480.000000, 6.963670
479.000000, 6.966994
478.000000, 6.970276
477.000000, 6.972036
476.000000, 6.973528
475.000000, 6.975910
474.000000, 6.977678
473.000000, 6.978441
472.000000, 6.979385
471.000000, 6.980880
470.000000, 6.981616
469.000000, 6.982547
468.000000, 6.983978
467.000000, 6.984906
466.000000, 6.985071
465.000000, 6.985060
464.000000, 6.984400
463.000000, 6.983956
462.000000, 6.982868
461.000000, 6.982045
460.000000, 6.980551
459.000000, 6.977688
458.000000, 6.976322
457.000000, 6.976465
456.000000, 6.976633
455.000000, 6.975290
454.000000, 6.973881
453.000000, 6.973570
452.000000, 6.972874
451.000000, 6.973011
450.000000, 6.973120
449.000000, 6.973367
448.000000, 6.973957
447.000000, 6.975259
446.000000, 6.977460
445.000000, 6.980002
444.000000, 6.981750
443.000000, 6.983814
442.000000, 6.987201
441.000000, 6.989993
440.000000, 6.992517
439.000000, 6.996493
438.000000, 6.998230
437.000000, 6.998862
436.000000, 7.002269
435.000000, 7.004552
434.000000, 7.006972
433.000000, 7.009130
432.000000, 7.009288
431.000000, 7.011522
430.000000, 7.015220
429.000000, 7.017654
428.000000, 7.018909
427.000000, 7.021745
426.000000, 7.023903
425.000000, 7.026931
424.000000, 7.027701
423.000000, 7.029019
422.000000, 7.032768
421.000000, 7.035601
420.000000, 7.036895
419.000000, 7.041570
418.000000, 7.043334
417.000000, 7.043705
416.000000, 7.047008
415.000000, 7.049865
414.000000, 7.051752
413.000000, 7.053935
412.000000, 7.055599
411.000000, 7.058387
410.000000, 7.060505
409.000000, 7.062400
408.000000, 7.065315
407.000000, 7.067576
406.000000, 7.068810
405.000000, 7.072235
404.000000, 7.075702
403.000000, 7.076739
402.000000, 7.079622
401.000000, 7.080420
400.000000, 7.082490
399.000000, 7.088720
398.000000, 7.090504
397.000000, 7.091180
396.000000, 7.092926
395.000000, 7.098079
394.000000, 7.099445
393.000000, 7.101895
392.000000, 7.106051
391.000000, 7.106819
390.000000, 7.108365
389.000000, 7.111110
388.000000, 7.114914
387.000000, 7.114264
386.000000, 7.118294
385.000000, 7.120747
384.000000, 7.125107
383.000000, 7.124812
382.000000, 7.127605
381.000000, 7.128686
380.000000, 7.134699
379.000000, 7.138847
378.000000, 7.152154
377.000000, 7.148917
376.000000, 7.154331
375.000000, 7.170474
374.000000, 7.173582
373.000000, 7.169770
372.000000, 7.183254
371.000000, 7.174884
370.000000, 7.171110
369.000000, 7.171019
368.000000, 7.175846
367.000000, 7.181160
366.000000, 7.179806
365.000000, 7.179224
364.000000, 7.190689
363.000000, 7.191511
362.000000, 7.195240
361.000000, 7.196844
360.000000, 7.199723
359.000000, 7.209482
358.000000, 7.204945
357.000000, 7.207354
356.000000, 7.209778
355.000000, 7.215890
354.000000, 7.220061
353.000000, 7.229507
352.000000, 7.226954
351.000000, 7.228446
350.000000, 7.234840
349.000000, 7.238582
348.000000, 7.236097
347.000000, 7.245874
346.000000, 7.241897
345.000000, 7.250510
344.000000, 7.258516
343.000000, 7.256503
342.000000, 7.266717
341.000000, 7.265263
340.000000, 7.265249
339.000000, 7.271277
338.000000, 7.279167
337.000000, 7.284389
336.000000, 7.290046
335.000000, 7.293816
334.000000, 7.289361
333.000000, 7.297666
332.000000, 7.301177
331.000000, 7.311370
330.000000, 7.308874
329.000000, 7.313955
328.000000, 7.319344
327.000000, 7.323381
326.000000, 7.316034
325.000000, 7.327906
324.000000, 7.338421
323.000000, 7.338906
322.000000, 7.349439
321.000000, 7.366751
320.000000, 7.349947
319.000000, 7.369812
318.000000, 7.376088
317.000000, 7.362925
316.000000, 7.356690
315.000000, 7.388424
314.000000, 7.369278
313.000000, 7.377021
312.000000, 7.385590
311.000000, 7.395620
310.000000, 7.388708
309.000000, 7.395872
308.000000, 7.412492
307.000000, 7.396288
306.000000, 7.415504
305.000000, 7.417248
304.000000, 7.420846
303.000000, 7.426962
302.000000, 7.441785
301.000000, 7.435403
300.000000, 7.452612
299.000000, 7.446163
298.000000, 7.462546
297.000000, 7.455646
296.000000, 7.472690
295.000000, 7.484319
294.000000, 7.498162
293.000000, 7.484024
292.000000, 7.500626
291.000000, 7.509409
290.000000, 7.512008
289.000000, 7.518443
288.000000, 7.526559
287.000000, 7.532565
286.000000, 7.531964
285.000000, 7.555583
284.000000, 7.556903
283.000000, 7.560856
282.000000, 7.562985
281.000000, 7.584849
280.000000, 7.578393
279.000000, 7.589960
278.000000, 7.593214
277.000000, 7.604943
276.000000, 7.616039
275.000000, 7.626039
274.000000, 7.630525
273.000000, 7.659213
272.000000, 7.652102
271.000000, 7.659295
270.000000, 7.666486
269.000000, 7.679572
268.000000, 7.681845
267.000000, 7.697899
266.000000, 7.701239
265.000000, 7.706709
264.000000, 7.712534
263.000000, 7.724787
262.000000, 7.726108
261.000000, 7.739303
260.000000, 7.751187
259.000000, 7.757868
258.000000, 7.772294
257.000000, 7.777387
256.000000, 7.787149
255.000000, 7.799221
254.000000, 7.807647
253.000000, 7.811572
252.000000, 7.836543
251.000000, 7.844830
250.000000, 7.859838
