nm, %T
3300.000000, 92.889095
3299.000000, 92.939784
3298.000000, 92.730829
3297.000000, 92.776525
3296.000000, 92.658985
3295.000000, 92.826222
3294.000000, 92.764422
3293.000000, 92.815089
3292.000000, 92.861252
3291.000000, 92.794001
3290.000000, 92.910461
3289.000000, 92.875232
3288.000000, 92.885578
3287.000000, 92.773273
3286.000000, 92.827252
3285.000000, 92.831938
3284.000000, 92.836526
3283.000000, 92.833250
3282.000000, 92.824422
3281.000000, 92.790061
3280.000000, 92.817048
3279.000000, 92.831022
3278.000000, 92.871615
3277.000000, 92.924020
3276.000000, 92.807532
3275.000000, 92.823353
3274.000000, 92.883059
3273.000000, 92.791796
3272.000000, 92.801435
3271.000000, 92.776348
3270.000000, 92.722481
3269.000000, 92.701713
3268.000000, 92.788741
3267.000000, 92.818949
3266.000000, 92.773651
3265.000000, 92.822054
3264.000000, 92.766691
3263.000000, 92.768899
3262.000000, 92.786875
3261.000000, 92.764889
3260.000000, 92.841795
3259.000000, 92.879244
3258.000000, 92.742066
3257.000000, 92.801135
3256.000000, 92.740397
3255.000000, 92.772645
3254.000000, 92.740981
3253.000000, 92.722480
3252.000000, 92.786271
3251.000000, 92.699068
3250.000000, 92.776669
3249.000000, 92.696256
3248.000000, 92.711329
3247.000000, 92.810666
3246.000000, 92.754230
3245.000000, 92.797576
3244.000000, 92.806692
3243.000000, 92.735154
3242.000000, 92.743827
3241.000000, 92.699360
3240.000000, 92.695419
3239.000000, 92.707153
3238.000000, 92.727558
3237.000000, 92.712095
3236.000000, 92.704530
3235.000000, 92.767959
3234.000000, 92.747464
3233.000000, 92.697973
3232.000000, 92.671765
3231.000000, 92.720169
3230.000000, 92.728110
3229.000000, 92.741212
3228.000000, 92.718676
3227.000000, 92.717410
3226.000000, 92.698317
3225.000000, 92.712615
3224.000000, 92.678682
3223.000000, 92.686435
3222.000000, 92.662127
3221.000000, 92.682521
3220.000000, 92.701144
3219.000000, 92.635194
3218.000000, 92.656693
3217.000000, 92.678338
3216.000000, 92.644990
3215.000000, 92.670055
3214.000000, 92.660719
3213.000000, 92.647999
3212.000000, 92.674498
3211.000000, 92.680738
3210.000000, 92.682294
3209.000000, 92.678438
3208.000000, 92.676469
3207.000000, 92.683526
3206.000000, 92.679484
3205.000000, 92.702630
3204.000000, 92.686100
3203.000000, 92.675361
3202.000000, 92.704208
3201.000000, 92.698530
3200.000000, 92.697690
3199.000000, 92.691354
3198.000000, 92.650882
3197.000000, 92.658257
3196.000000, 92.678074
3195.000000, 92.699327
3194.000000, 92.698714
3193.000000, 92.678668
3192.000000, 92.672124
3191.000000, 92.638974
3190.000000, 92.619624
3189.000000, 92.616212
3188.000000, 92.643426
3187.000000, 92.650757
3186.000000, 92.651629
3185.000000, 92.644935
3184.000000, 92.643528
3183.000000, 92.687666
3182.000000, 92.697499
3181.000000, 92.670101
3180.000000, 92.661976
3179.000000, 92.623499
3178.000000, 92.613227
3177.000000, 92.603086
3176.000000, 92.596638
3175.000000, 92.622302
3174.000000, 92.628652
3173.000000, 92.644925
3172.000000, 92.643330
3171.000000, 92.647256
3170.000000, 92.645066
3169.000000, 92.624677
3168.000000, 92.603438
3167.000000, 92.584309
3166.000000, 92.614656
3165.000000, 92.639003
3164.000000, 92.596401
3163.000000, 92.590669
3162.000000, 92.596811
3161.000000, 92.606078
3160.000000, 92.599819
3159.000000, 92.596165
3158.000000, 92.638060
3157.000000, 92.630286
3156.000000, 92.617598
3155.000000, 92.602077
3154.000000, 92.601952
3153.000000, 92.592279
3152.000000, 92.604243
3151.000000, 92.611205
3150.000000, 92.592190
3149.000000, 92.586110
3148.000000, 92.598469
3147.000000, 92.588609
3146.000000, 92.614317
3145.000000, 92.605523
3144.000000, 92.562382
3143.000000, 92.579540
3142.000000, 92.595136
3141.000000, 92.576222
3140.000000, 92.576948
3139.000000, 92.566532
3138.000000, 92.571528
3137.000000, 92.587299
3136.000000, 92.586897
3135.000000, 92.546679
3134.000000, 92.545863
3133.000000, 92.563511
3132.000000, 92.581100
3131.000000, 92.602421
3130.000000, 92.588638
3129.000000, 92.600649
3128.000000, 92.607790
3127.000000, 92.601243
3126.000000, 92.594260
3125.000000, 92.600839
3124.000000, 92.577789
3123.000000, 92.581252
3122.000000, 92.581847
3121.000000, 92.630414
3120.000000, 92.628123
3119.000000, 92.606252
3118.000000, 92.621752
3117.000000, 92.613293
3116.000000, 92.585889
3115.000000, 92.608244
3114.000000, 92.611299
3113.000000, 92.613867
3112.000000, 92.596633
3111.000000, 92.629930
3110.000000, 92.633469
3109.000000, 92.588275
3108.000000, 92.605276
3107.000000, 92.597251
3106.000000, 92.606537
3105.000000, 92.579621
3104.000000, 92.632246
3103.000000, 92.635623
3102.000000, 92.589088
3101.000000, 92.643923
3100.000000, 92.637711
3099.000000, 92.643867
3098.000000, 92.666286
3097.000000, 92.640379
3096.000000, 92.626053
3095.000000, 92.634128
3094.000000, 92.626799
3093.000000, 92.628010
3092.000000, 92.638445
3091.000000, 92.608204
3090.000000, 92.603107
3089.000000, 92.640273
3088.000000, 92.637387
3087.000000, 92.626005
3086.000000, 92.643780
3085.000000, 92.610348
3084.000000, 92.590846
3083.000000, 92.639301
3082.000000, 92.630353
3081.000000, 92.625709
3080.000000, 92.613320
3079.000000, 92.598258
3078.000000, 92.587717
3077.000000, 92.587165
3076.000000, 92.605157
3075.000000, 92.612355
3074.000000, 92.596313
3073.000000, 92.607159
3072.000000, 92.591260
3071.000000, 92.623788
3070.000000, 92.608760
3069.000000, 92.590785
3068.000000, 92.602102
3067.000000, 92.591480
3066.000000, 92.629902
3065.000000, 92.608683
3064.000000, 92.612942
3063.000000, 92.605226
3062.000000, 92.624694
3061.000000, 92.606638
3060.000000, 92.619529
3059.000000, 92.566946
3058.000000, 92.616920
3057.000000, 92.580035
3056.000000, 92.628623
3055.000000, 92.603443
3054.000000, 92.616566
3053.000000, 92.607840
3052.000000, 92.631508
3051.000000, 92.611694
3050.000000, 92.622868
3049.000000, 92.614158
3048.000000, 92.568912
3047.000000, 92.598628
3046.000000, 92.612551
3045.000000, 92.624215
3044.000000, 92.603586
3043.000000, 92.590032
3042.000000, 92.573820
3041.000000, 92.624829
3040.000000, 92.601733
3039.000000, 92.615150
3038.000000, 92.630049
3037.000000, 92.589893
3036.000000, 92.618280
3035.000000, 92.611304
3034.000000, 92.590346
3033.000000, 92.617584
3032.000000, 92.602913
3031.000000, 92.614591
3030.000000, 92.619562
3029.000000, 92.610698
3028.000000, 92.603338
3027.000000, 92.613195
3026.000000, 92.616985
3025.000000, 92.620093
3024.000000, 92.607758
3023.000000, 92.623796
3022.000000, 92.616703
3021.000000, 92.627612
3020.000000, 92.650059
3019.000000, 92.617492
3018.000000, 92.601338
3017.000000, 92.613465
3016.000000, 92.635787
3015.000000, 92.621419
3014.000000, 92.606876
3013.000000, 92.607965
3012.000000, 92.599481
3011.000000, 92.609846
3010.000000, 92.598903
3009.000000, 92.613912
3008.000000, 92.626236
3007.000000, 92.656077
3006.000000, 92.634261
3005.000000, 92.630016
3004.000000, 92.626287
3003.000000, 92.623777
3002.000000, 92.622188
3001.000000, 92.638105
3000.000000, 92.632471
2999.000000, 92.640326
2998.000000, 92.646590
2997.000000, 92.646628
2996.000000, 92.647371
2995.000000, 92.646087
2994.000000, 92.645431
2993.000000, 92.667667
2992.000000, 92.648897
2991.000000, 92.650706
2990.000000, 92.658053
2989.000000, 92.657852
2988.000000, 92.659513
2987.000000, 92.647823
2986.000000, 92.659757
2985.000000, 92.670229
2984.000000, 92.664688
2983.000000, 92.665798
2982.000000, 92.665315
2981.000000, 92.683120
2980.000000, 92.686230
2979.000000, 92.692765
2978.000000, 92.694250
2977.000000, 92.707223
2976.000000, 92.716546
2975.000000, 92.713978
2974.000000, 92.710637
2973.000000, 92.710510
2972.000000, 92.705276
2971.000000, 92.705137
2970.000000, 92.715292
2969.000000, 92.719664
2968.000000, 92.710439
2967.000000, 92.732864
2966.000000, 92.740295
2965.000000, 92.729625
2964.000000, 92.743323
2963.000000, 92.747952
2962.000000, 92.746326
2961.000000, 92.764934
2960.000000, 92.773086
2959.000000, 92.765811
2958.000000, 92.759424
2957.000000, 92.772141
2956.000000, 92.762958
2955.000000, 92.756841
2954.000000, 92.771878
2953.000000, 92.781967
2952.000000, 92.798537
2951.000000, 92.799410
2950.000000, 92.802227
2949.000000, 92.801623
2948.000000, 92.801918
2947.000000, 92.805822
2946.000000, 92.813782
2945.000000, 92.815316
2944.000000, 92.822392
2943.000000, 92.827449
2942.000000, 92.829765
2941.000000, 92.837167
2940.000000, 92.841168
2939.000000, 92.834759
2938.000000, 92.841038
2937.000000, 92.844382
2936.000000, 92.846935
2935.000000, 92.857835
2934.000000, 92.861146
2933.000000, 92.854464
2932.000000, 92.851212
2931.000000, 92.852633
2930.000000, 92.864525
2929.000000, 92.869947
2928.000000, 92.871123
2927.000000, 92.875588
2926.000000, 92.874119
2925.000000, 92.877245
2924.000000, 92.880087
2923.000000, 92.885302
2922.000000, 92.889694
2921.000000, 92.893329
2920.000000, 92.891472
2919.000000, 92.898627
2918.000000, 92.900560
2917.000000, 92.895483
2916.000000, 92.899459
2915.000000, 92.895675
2914.000000, 92.903357
2913.000000, 92.910543
2912.000000, 92.901068
2911.000000, 92.910452
2910.000000, 92.926704
2909.000000, 92.927212
2908.000000, 92.928450
2907.000000, 92.929042
2906.000000, 92.938261
2905.000000, 92.944497
2904.000000, 92.946691
2903.000000, 92.944817
2902.000000, 92.948381
2901.000000, 92.964298
2900.000000, 92.963407
2899.000000, 92.968083
2898.000000, 92.983836
2897.000000, 92.974836
2896.000000, 92.964863
2895.000000, 92.996199
2894.000000, 92.997201
2893.000000, 93.010837
2892.000000, 92.991443
2891.000000, 92.969024
2890.000000, 93.002527
2889.000000, 93.016265
2888.000000, 93.013540
2887.000000, 93.021637
2886.000000, 93.020932
2885.000000, 93.028320
2884.000000, 93.031446
2883.000000, 93.035650
2882.000000, 93.031009
2881.000000, 93.022863
2880.000000, 93.031169
2879.000000, 93.036336
2878.000000, 93.031771
2877.000000, 93.031730
2876.000000, 93.032886
2875.000000, 93.037331
2874.000000, 93.046001
2873.000000, 93.054060
2872.000000, 93.073147
2871.000000, 93.090138
2870.000000, 93.093217
2869.000000, 93.104504
2868.000000, 93.102044
2867.000000, 93.075780
2866.000000, 93.096790
2865.000000, 93.102180
2864.000000, 93.107770
2863.000000, 93.088458
2862.000000, 93.076091
2861.000000, 93.077196
2860.000000, 93.076758
2859.000000, 93.091196
2858.000000, 93.093803
2857.000000, 93.076768
2856.000000, 93.078971
2855.000000, 93.083809
2854.000000, 93.069622
2853.000000, 93.079689
2852.000000, 93.093724
2851.000000, 93.096684
2850.000000, 93.112331
2849.000000, 93.091274
2848.000000, 93.098074
2847.000000, 93.114284
2846.000000, 93.131262
2845.000000, 93.127178
2844.000000, 93.130607
2843.000000, 93.135019
2842.000000, 93.144994
2841.000000, 93.168901
2840.000000, 93.182057
2839.000000, 93.175536
2838.000000, 93.181752
2837.000000, 93.187928
2836.000000, 93.183580
2835.000000, 93.212916
2834.000000, 93.206022
2833.000000, 93.212264
2832.000000, 93.214604
2831.000000, 93.227783
2830.000000, 93.224741
2829.000000, 93.222330
2828.000000, 93.236107
2827.000000, 93.248437
2826.000000, 93.250399
2825.000000, 93.240290
2824.000000, 93.229258
2823.000000, 93.233510
2822.000000, 93.276110
2821.000000, 93.232504
2820.000000, 93.231104
2819.000000, 93.242885
2818.000000, 93.223430
2817.000000, 93.231903
2816.000000, 93.195206
2815.000000, 93.214185
2814.000000, 93.226600
2813.000000, 93.219036
2812.000000, 93.194838
2811.000000, 93.171510
2810.000000, 93.169429
2809.000000, 93.149213
2808.000000, 93.158841
2807.000000, 93.166793
2806.000000, 93.142855
2805.000000, 93.177196
2804.000000, 93.170799
2803.000000, 93.210028
2802.000000, 93.242033
2801.000000, 93.257334
2800.000000, 93.265039
2799.000000, 93.289479
2798.000000, 93.319186
2797.000000, 93.315807
2796.000000, 93.336637
2795.000000, 93.338034
2794.000000, 93.335277
2793.000000, 93.320345
2792.000000, 93.325604
2791.000000, 93.320250
2790.000000, 93.313283
2789.000000, 93.317853
2788.000000, 93.319407
2787.000000, 93.302139
2786.000000, 93.302341
2785.000000, 93.277977
2784.000000, 93.271029
2783.000000, 93.265512
2782.000000, 93.257542
2781.000000, 93.238239
2780.000000, 93.217930
2779.000000, 93.208056
2778.000000, 93.190004
2777.000000, 93.161377
2776.000000, 93.166202
2775.000000, 93.158139
2774.000000, 93.154585
2773.000000, 93.177904
2772.000000, 93.184588
2771.000000, 93.188094
2770.000000, 93.184681
2769.000000, 93.183576
2768.000000, 93.169202
2767.000000, 93.162214
2766.000000, 93.159611
2765.000000, 93.158065
2764.000000, 93.160629
2763.000000, 93.161621
2762.000000, 93.139660
2761.000000, 93.117789
2760.000000, 93.112037
2759.000000, 93.113508
2758.000000, 93.095983
2757.000000, 93.092333
2756.000000, 93.089428
2755.000000, 93.087309
2754.000000, 93.093186
2753.000000, 93.076488
2752.000000, 93.059241
2751.000000, 93.059308
2750.000000, 93.067439
2749.000000, 93.059230
2748.000000, 93.049114
2747.000000, 93.035252
2746.000000, 93.017272
2745.000000, 92.999646
2744.000000, 92.981933
2743.000000, 92.990460
2742.000000, 93.004455
2741.000000, 93.002054
2740.000000, 92.997490
2739.000000, 92.986401
2738.000000, 92.990692
2737.000000, 92.994643
2736.000000, 92.997501
2735.000000, 93.005233
2734.000000, 93.028836
2733.000000, 93.005382
2732.000000, 92.989264
2731.000000, 92.969519
2730.000000, 92.967057
2729.000000, 92.959390
2728.000000, 92.965497
2727.000000, 92.948692
2726.000000, 92.940350
2725.000000, 92.927924
2724.000000, 92.897252
2723.000000, 92.876666
2722.000000, 92.864252
2721.000000, 92.871736
2720.000000, 92.890425
2719.000000, 92.921402
2718.000000, 92.935252
2717.000000, 92.964203
2716.000000, 92.984443
2715.000000, 93.002080
2714.000000, 93.030617
2713.000000, 92.981395
2712.000000, 92.999059
2711.000000, 93.021611
2710.000000, 93.052758
2709.000000, 93.061230
2708.000000, 93.068404
2707.000000, 93.082465
2706.000000, 93.101253
2705.000000, 93.105951
2704.000000, 93.113303
2703.000000, 93.121667
2702.000000, 93.119265
2701.000000, 93.105129
2700.000000, 93.120485
2699.000000, 93.138759
2698.000000, 93.153495
2697.000000, 93.200331
2696.000000, 93.263877
2695.000000, 93.330117
2694.000000, 93.376352
2693.000000, 93.424960
2692.000000, 93.490364
2691.000000, 93.548860
2690.000000, 93.594360
2689.000000, 93.637281
2688.000000, 93.661812
2687.000000, 93.685142
2686.000000, 93.734607
2685.000000, 93.751314
2684.000000, 93.752540
2683.000000, 93.767652
2682.000000, 93.796174
2681.000000, 93.819507
2680.000000, 93.842446
2679.000000, 93.880586
2678.000000, 93.905373
2677.000000, 93.925971
2676.000000, 93.952489
2675.000000, 93.957238
2674.000000, 93.946418
2673.000000, 93.935188
2672.000000, 93.924073
2671.000000, 93.920632
2670.000000, 93.922682
2669.000000, 93.903852
2668.000000, 93.880396
2667.000000, 93.872447
2666.000000, 93.853922
2665.000000, 93.828018
2664.000000, 93.797469
2663.000000, 93.777578
2662.000000, 93.784789
2661.000000, 93.780487
2660.000000, 93.784253
2659.000000, 93.807708
2658.000000, 93.831084
2657.000000, 93.847258
2656.000000, 93.860970
2655.000000, 93.877051
2654.000000, 93.891623
2653.000000, 93.903370
2652.000000, 93.924143
2651.000000, 93.943043
2650.000000, 93.921394
2649.000000, 93.918252
2648.000000, 93.923568
2647.000000, 93.917177
2646.000000, 93.912407
2645.000000, 93.907855
2644.000000, 93.877481
2643.000000, 93.874631
2642.000000, 93.884796
2641.000000, 93.850070
2640.000000, 93.856564
2639.000000, 93.896400
2638.000000, 93.887991
2637.000000, 93.860924
2636.000000, 93.854038
2635.000000, 93.867531
2634.000000, 93.851203
2633.000000, 93.838825
2632.000000, 93.801379
2631.000000, 93.767332
2630.000000, 93.759062
2629.000000, 93.777948
2628.000000, 93.788885
2627.000000, 93.816132
2626.000000, 93.778931
2625.000000, 93.795473
2624.000000, 93.826575
2623.000000, 93.853178
2622.000000, 93.849697
2621.000000, 93.856285
2620.000000, 93.857894
2619.000000, 93.855617
2618.000000, 93.866873
2617.000000, 93.850977
2616.000000, 93.857279
2615.000000, 93.863911
2614.000000, 93.861116
2613.000000, 93.844350
2612.000000, 93.829356
2611.000000, 93.821421
2610.000000, 93.804900
2609.000000, 93.750020
2608.000000, 93.741209
2607.000000, 93.753185
2606.000000, 93.748670
2605.000000, 93.771126
2604.000000, 93.800263
2603.000000, 93.809436
2602.000000, 93.820994
2601.000000, 93.803252
2600.000000, 93.851524
2599.000000, 93.868559
2598.000000, 93.877755
2597.000000, 93.879847
2596.000000, 93.844079
2595.000000, 93.869068
2594.000000, 93.881159
2593.000000, 93.892993
2592.000000, 93.907270
2591.000000, 93.916871
2590.000000, 93.952627
2589.000000, 93.968361
2588.000000, 93.986355
2587.000000, 93.990229
2586.000000, 94.000342
2585.000000, 93.986112
2584.000000, 93.989031
2583.000000, 94.020657
2582.000000, 94.012261
2581.000000, 93.932938
2580.000000, 93.969743
2579.000000, 93.966251
2578.000000, 93.917972
2577.000000, 93.919789
2576.000000, 93.914031
2575.000000, 93.909679
2574.000000, 93.882677
2573.000000, 93.863723
2572.000000, 93.886274
2571.000000, 93.860133
2570.000000, 93.844001
2569.000000, 93.843856
2568.000000, 93.817699
2567.000000, 93.821006
2566.000000, 93.816950
2565.000000, 93.782023
2564.000000, 93.793173
2563.000000, 93.816503
2562.000000, 93.798837
2561.000000, 93.837499
2560.000000, 93.867079
2559.000000, 93.898256
2558.000000, 93.926048
2557.000000, 93.900464
2556.000000, 93.921986
2555.000000, 93.925144
2554.000000, 93.878658
2553.000000, 93.842558
2552.000000, 93.847219
2551.000000, 93.810958
2550.000000, 93.798989
2549.000000, 93.783881
2548.000000, 93.812132
2547.000000, 93.836184
2546.000000, 93.846154
2545.000000, 93.893884
2544.000000, 93.914437
2543.000000, 93.918339
2542.000000, 93.838104
2541.000000, 93.929203
2540.000000, 93.927141
2539.000000, 93.897937
2538.000000, 93.866763
2537.000000, 93.862282
2536.000000, 93.865701
2535.000000, 93.842137
2534.000000, 93.866355
2533.000000, 93.878326
2532.000000, 93.896046
2531.000000, 93.887840
2530.000000, 93.820531
2529.000000, 93.870518
2528.000000, 93.844639
2527.000000, 93.885304
2526.000000, 93.834252
2525.000000, 93.857612
2524.000000, 93.834182
2523.000000, 93.844630
2522.000000, 93.828823
2521.000000, 93.851161
2520.000000, 93.846146
2519.000000, 93.860869
2518.000000, 93.869585
2517.000000, 93.879939
2516.000000, 93.868643
2515.000000, 93.885956
2514.000000, 93.863147
2513.000000, 93.850625
2512.000000, 93.852654
2511.000000, 93.880791
2510.000000, 93.863958
2509.000000, 93.864433
2508.000000, 93.831654
2507.000000, 93.843921
2506.000000, 93.824325
2505.000000, 93.838307
2504.000000, 93.855097
2503.000000, 93.871279
2502.000000, 93.861863
2501.000000, 93.885402
2500.000000, 93.858783
2499.000000, 93.874997
2498.000000, 93.853026
2497.000000, 93.867794
2496.000000, 93.856210
2495.000000, 93.863538
2494.000000, 93.851066
2493.000000, 93.872223
2492.000000, 93.859572
2491.000000, 93.857548
2490.000000, 93.844516
2489.000000, 93.850114
2488.000000, 93.847670
2487.000000, 93.883494
2486.000000, 93.863531
2485.000000, 93.861727
2484.000000, 93.821181
2483.000000, 93.833115
2482.000000, 93.828674
2481.000000, 93.839040
2480.000000, 93.825037
2479.000000, 93.866082
2478.000000, 93.876612
2477.000000, 93.866681
2476.000000, 93.856250
2475.000000, 93.854049
2474.000000, 93.848590
2473.000000, 93.852488
2472.000000, 93.847114
2471.000000, 93.855098
2470.000000, 93.850399
2469.000000, 93.845423
2468.000000, 93.839780
2467.000000, 93.845772
2466.000000, 93.855571
2465.000000, 93.854820
2464.000000, 93.852907
2463.000000, 93.855788
2462.000000, 93.851060
2461.000000, 93.852786
2460.000000, 93.848263
2459.000000, 93.834432
2458.000000, 93.844067
2457.000000, 93.846501
2456.000000, 93.845652
2455.000000, 93.845592
2454.000000, 93.857364
2453.000000, 93.841902
2452.000000, 93.850668
2451.000000, 93.824710
2450.000000, 93.838294
2449.000000, 93.840900
2448.000000, 93.856856
2447.000000, 93.858013
2446.000000, 93.863544
2445.000000, 93.848255
2444.000000, 93.836704
2443.000000, 93.839426
2442.000000, 93.846680
2441.000000, 93.840403
2440.000000, 93.847297
2439.000000, 93.850872
2438.000000, 93.843956
2437.000000, 93.839704
2436.000000, 93.836320
2435.000000, 93.844718
2434.000000, 93.837470
2433.000000, 93.840655
2432.000000, 93.847825
2431.000000, 93.839808
2430.000000, 93.829222
2429.000000, 93.842325
2428.000000, 93.845201
2427.000000, 93.844535
2426.000000, 93.835436
2425.000000, 93.834974
2424.000000, 93.832982
2423.000000, 93.829091
2422.000000, 93.826134
2421.000000, 93.838610
2420.000000, 93.840006
2419.000000, 93.844637
2418.000000, 93.845256
2417.000000, 93.843026
2416.000000, 93.849032
2415.000000, 93.844487
2414.000000, 93.845844
2413.000000, 93.850915
2412.000000, 93.856918
2411.000000, 93.840032
2410.000000, 93.842559
2409.000000, 93.846467
2408.000000, 93.838814
2407.000000, 93.834919
2406.000000, 93.836975
2405.000000, 93.840388
2404.000000, 93.839393
2403.000000, 93.832238
2402.000000, 93.841739
2401.000000, 93.847908
2400.000000, 93.840289
2399.000000, 93.845226
2398.000000, 93.848436
2397.000000, 93.850278
2396.000000, 93.846730
2395.000000, 93.859856
2394.000000, 93.859685
2393.000000, 93.849694
2392.000000, 93.836481
2391.000000, 93.844623
2390.000000, 93.837661
2389.000000, 93.840979
2388.000000, 93.847186
2387.000000, 93.837016
2386.000000, 93.837653
2385.000000, 93.836957
2384.000000, 93.844565
2383.000000, 93.841684
2382.000000, 93.841270
2381.000000, 93.838732
2380.000000, 93.841427
2379.000000, 93.844745
2378.000000, 93.839562
2377.000000, 93.826138
2376.000000, 93.821319
2375.000000, 93.843440
2374.000000, 93.840239
2373.000000, 93.836763
2372.000000, 93.833347
2371.000000, 93.825276
2370.000000, 93.825190
2369.000000, 93.828039
2368.000000, 93.841088
2367.000000, 93.831049
2366.000000, 93.838054
2365.000000, 93.842699
2364.000000, 93.841459
2363.000000, 93.827030
2362.000000, 93.837665
2361.000000, 93.853077
2360.000000, 93.846256
2359.000000, 93.859841
2358.000000, 93.839378
2357.000000, 93.848461
2356.000000, 93.842803
2355.000000, 93.839136
2354.000000, 93.833134
2353.000000, 93.821178
2352.000000, 93.828370
2351.000000, 93.813802
2350.000000, 93.827578
2349.000000, 93.803847
2348.000000, 93.810001
2347.000000, 93.793469
2346.000000, 93.813811
2345.000000, 93.848484
2344.000000, 93.824179
2343.000000, 93.839740
2342.000000, 93.816666
2341.000000, 93.826252
2340.000000, 93.810112
2339.000000, 93.831182
2338.000000, 93.851788
2337.000000, 93.842642
2336.000000, 93.849116
2335.000000, 93.844122
2334.000000, 93.851704
2333.000000, 93.847403
2332.000000, 93.832137
2331.000000, 93.834530
2330.000000, 93.827636
2329.000000, 93.834873
2328.000000, 93.825133
2327.000000, 93.824080
2326.000000, 93.828374
2325.000000, 93.817433
2324.000000, 93.853065
2323.000000, 93.811266
2322.000000, 93.835654
2321.000000, 93.807305
2320.000000, 93.810802
2319.000000, 93.817218
2318.000000, 93.815112
2317.000000, 93.848486
2316.000000, 93.834468
2315.000000, 93.843720
2314.000000, 93.830226
2313.000000, 93.843536
2312.000000, 93.825204
2311.000000, 93.798213
2310.000000, 93.820886
2309.000000, 93.813496
2308.000000, 93.846429
2307.000000, 93.824319
2306.000000, 93.810255
2305.000000, 93.808187
2304.000000, 93.805496
2303.000000, 93.808635
2302.000000, 93.824974
2301.000000, 93.812722
2300.000000, 93.828499
2299.000000, 93.823667
2298.000000, 93.835389
2297.000000, 93.800431
2296.000000, 93.786518
2295.000000, 93.797841
2294.000000, 93.802932
2293.000000, 93.808754
2292.000000, 93.808529
2291.000000, 93.820130
2290.000000, 93.813778
2289.000000, 93.802474
2288.000000, 93.820479
2287.000000, 93.822145
2286.000000, 93.785500
2285.000000, 93.808772
2284.000000, 93.803922
2283.000000, 93.815180
2282.000000, 93.790909
2281.000000, 93.812669
2280.000000, 93.795737
2279.000000, 93.796236
2278.000000, 93.790857
2277.000000, 93.790249
2276.000000, 93.803509
2275.000000, 93.777698
2274.000000, 93.781617
2273.000000, 93.802446
2272.000000, 93.787739
2271.000000, 93.801843
2270.000000, 93.815892
2269.000000, 93.792670
2268.000000, 93.790444
2267.000000, 93.801529
2266.000000, 93.815174
2265.000000, 93.800918
2264.000000, 93.799886
2263.000000, 93.793235
2262.000000, 93.798708
2261.000000, 93.792610
2260.000000, 93.794288
2259.000000, 93.795495
2258.000000, 93.785219
2257.000000, 93.805069
2256.000000, 93.796982
2255.000000, 93.798821
2254.000000, 93.786935
2253.000000, 93.787458
2252.000000, 93.793380
2251.000000, 93.804633
2250.000000, 93.792327
2249.000000, 93.792140
2248.000000, 93.785358
2247.000000, 93.780704
2246.000000, 93.778036
2245.000000, 93.789670
2244.000000, 93.792557
2243.000000, 93.783767
2242.000000, 93.783674
2241.000000, 93.793104
2240.000000, 93.816284
2239.000000, 93.800658
2238.000000, 93.791829
2237.000000, 93.794130
2236.000000, 93.781466
2235.000000, 93.787395
2234.000000, 93.798594
2233.000000, 93.781353
2232.000000, 93.776459
2231.000000, 93.789299
2230.000000, 93.770463
2229.000000, 93.787137
2228.000000, 93.776850
2227.000000, 93.774150
2226.000000, 93.776333
2225.000000, 93.795200
2224.000000, 93.777364
2223.000000, 93.777910
2222.000000, 93.780202
2221.000000, 93.780864
2220.000000, 93.767454
2219.000000, 93.775250
2218.000000, 93.786386
2217.000000, 93.780218
2216.000000, 93.770842
2215.000000, 93.770026
2214.000000, 93.762755
2213.000000, 93.774112
2212.000000, 93.774527
2211.000000, 93.769773
2210.000000, 93.775387
2209.000000, 93.777512
2208.000000, 93.766385
2207.000000, 93.775654
2206.000000, 93.765000
2205.000000, 93.753660
2204.000000, 93.759599
2203.000000, 93.762357
2202.000000, 93.768616
2201.000000, 93.768164
2200.000000, 93.768397
2199.000000, 93.764591
2198.000000, 93.752651
2197.000000, 93.762114
2196.000000, 93.773133
2195.000000, 93.766222
2194.000000, 93.769739
2193.000000, 93.772059
2192.000000, 93.783473
2191.000000, 93.780651
2190.000000, 93.770147
2189.000000, 93.764431
2188.000000, 93.776750
2187.000000, 93.780220
2186.000000, 93.768720
2185.000000, 93.774679
2184.000000, 93.771435
2183.000000, 93.758038
2182.000000, 93.751722
2181.000000, 93.765633
2180.000000, 93.779704
2179.000000, 93.769808
2178.000000, 93.766338
2177.000000, 93.760992
2176.000000, 93.746908
2175.000000, 93.760907
2174.000000, 93.768694
2173.000000, 93.754628
2172.000000, 93.761227
2171.000000, 93.765599
2170.000000, 93.766006
2169.000000, 93.769892
2168.000000, 93.776485
2167.000000, 93.778035
2166.000000, 93.774182
2165.000000, 93.777668
2164.000000, 93.773251
2163.000000, 93.778817
2162.000000, 93.790812
2161.000000, 93.783189
2160.000000, 93.773926
2159.000000, 93.764392
2158.000000, 93.750685
2157.000000, 93.762477
2156.000000, 93.768135
2155.000000, 93.772462
2154.000000, 93.780675
2153.000000, 93.767483
2152.000000, 93.753175
2151.000000, 93.742353
2150.000000, 93.747717
2149.000000, 93.755451
2148.000000, 93.752196
2147.000000, 93.759570
2146.000000, 93.757687
2145.000000, 93.749434
2144.000000, 93.746525
2143.000000, 93.755173
2142.000000, 93.743324
2141.000000, 93.740162
2140.000000, 93.756311
2139.000000, 93.755413
2138.000000, 93.756671
2137.000000, 93.776362
2136.000000, 93.775361
2135.000000, 93.762816
2134.000000, 93.757071
2133.000000, 93.748063
2132.000000, 93.756112
2131.000000, 93.759023
2130.000000, 93.743781
2129.000000, 93.741492
2128.000000, 93.751205
2127.000000, 93.740451
2126.000000, 93.734798
2125.000000, 93.746870
2124.000000, 93.750027
2123.000000, 93.740370
2122.000000, 93.729262
2121.000000, 93.737020
2120.000000, 93.744033
2119.000000, 93.729350
2118.000000, 93.735489
2117.000000, 93.741382
2116.000000, 93.744585
2115.000000, 93.740110
2114.000000, 93.737233
2113.000000, 93.750932
2112.000000, 93.741028
2111.000000, 93.742087
2110.000000, 93.764315
2109.000000, 93.749587
2108.000000, 93.754063
2107.000000, 93.754836
2106.000000, 93.759285
2105.000000, 93.744292
2104.000000, 93.733963
2103.000000, 93.757767
2102.000000, 93.781648
2101.000000, 93.749814
2100.000000, 93.742828
2099.000000, 93.739192
2098.000000, 93.734369
2097.000000, 93.737785
2096.000000, 93.743653
2095.000000, 93.737158
2094.000000, 93.735061
2093.000000, 93.745178
2092.000000, 93.751765
2091.000000, 93.742161
2090.000000, 93.741961
2089.000000, 93.749780
2088.000000, 93.729603
2087.000000, 93.735181
2086.000000, 93.755321
2085.000000, 93.756819
2084.000000, 93.751358
2083.000000, 93.747283
2082.000000, 93.751645
2081.000000, 93.740643
2080.000000, 93.739405
2079.000000, 93.753010
2078.000000, 93.746324
2077.000000, 93.737761
2076.000000, 93.726929
2075.000000, 93.739026
2074.000000, 93.733632
2073.000000, 93.730111
2072.000000, 93.748881
2071.000000, 93.740899
2070.000000, 93.727876
2069.000000, 93.733940
2068.000000, 93.714975
2067.000000, 93.736317
2066.000000, 93.712928
2065.000000, 93.727770
2064.000000, 93.728099
2063.000000, 93.723959
2062.000000, 93.724090
2061.000000, 93.724791
2060.000000, 93.737313
2059.000000, 93.716245
2058.000000, 93.728566
2057.000000, 93.748622
2056.000000, 93.737742
2055.000000, 93.714396
2054.000000, 93.723994
2053.000000, 93.722119
2052.000000, 93.730909
2051.000000, 93.714081
2050.000000, 93.731354
2049.000000, 93.737247
2048.000000, 93.731632
2047.000000, 93.714965
2046.000000, 93.727916
2045.000000, 93.733350
2044.000000, 93.700071
2043.000000, 93.722427
2042.000000, 93.734656
2041.000000, 93.741659
2040.000000, 93.725681
2039.000000, 93.706632
2038.000000, 93.715749
2037.000000, 93.720229
2036.000000, 93.719575
2035.000000, 93.727954
2034.000000, 93.729741
2033.000000, 93.736524
2032.000000, 93.709784
2031.000000, 93.686000
2030.000000, 93.731449
2029.000000, 93.766209
2028.000000, 93.742701
2027.000000, 93.721105
2026.000000, 93.731166
2025.000000, 93.737713
2024.000000, 93.721093
2023.000000, 93.722903
2022.000000, 93.722838
2021.000000, 93.722351
2020.000000, 93.703415
2019.000000, 93.704981
2018.000000, 93.719599
2017.000000, 93.714311
2016.000000, 93.724028
2015.000000, 93.701295
2014.000000, 93.714436
2013.000000, 93.735651
2012.000000, 93.761910
2011.000000, 93.709656
2010.000000, 93.708499
2009.000000, 93.728216
2008.000000, 93.734327
2007.000000, 93.716111
2006.000000, 93.729927
2005.000000, 93.724996
2004.000000, 93.727454
2003.000000, 93.718161
2002.000000, 93.705114
2001.000000, 93.698036
2000.000000, 93.719782
1999.000000, 93.735365
1998.000000, 93.717393
1997.000000, 93.697639
1996.000000, 93.725102
1995.000000, 93.746815
1994.000000, 93.726341
1993.000000, 93.706803
1992.000000, 93.707992
1991.000000, 93.708332
1990.000000, 93.705869
1989.000000, 93.701660
1988.000000, 93.693655
1987.000000, 93.700794
1986.000000, 93.727235
1985.000000, 93.736797
1984.000000, 93.713414
1983.000000, 93.707117
1982.000000, 93.716052
1981.000000, 93.731488
1980.000000, 93.741945
1979.000000, 93.737899
1978.000000, 93.711960
1977.000000, 93.712977
1976.000000, 93.728881
1975.000000, 93.722566
1974.000000, 93.682859
1973.000000, 93.676228
1972.000000, 93.708159
1971.000000, 93.721589
1970.000000, 93.722902
1969.000000, 93.714586
1968.000000, 93.690563
1967.000000, 93.691265
1966.000000, 93.702329
1965.000000, 93.696474
1964.000000, 93.705096
1963.000000, 93.695909
1962.000000, 93.685301
1961.000000, 93.693484
1960.000000, 93.706132
1959.000000, 93.703022
1958.000000, 93.686983
1957.000000, 93.691594
1956.000000, 93.691246
1955.000000, 93.709862
1954.000000, 93.706648
1953.000000, 93.694088
1952.000000, 93.685386
1951.000000, 93.700207
1950.000000, 93.685730
1949.000000, 93.692049
1948.000000, 93.754047
1947.000000, 93.705863
1946.000000, 93.695433
1945.000000, 93.692182
1944.000000, 93.696193
1943.000000, 93.691299
1942.000000, 93.679440
1941.000000, 93.692679
1940.000000, 93.709920
1939.000000, 93.713913
1938.000000, 93.683232
1937.000000, 93.646776
1936.000000, 93.639108
1935.000000, 93.653242
1934.000000, 93.668996
1933.000000, 93.696322
1932.000000, 93.707237
1931.000000, 93.691565
1930.000000, 93.724154
1929.000000, 93.718361
1928.000000, 93.695829
1927.000000, 93.676176
1926.000000, 93.666820
1925.000000, 93.683266
1924.000000, 93.714269
1923.000000, 93.739238
1922.000000, 93.773860
1921.000000, 93.772300
1920.000000, 93.706029
1919.000000, 93.703512
1918.000000, 93.678601
1917.000000, 93.644601
1916.000000, 93.676419
1915.000000, 93.741250
1914.000000, 93.782183
1913.000000, 93.765383
1912.000000, 93.699119
1911.000000, 93.652119
1910.000000, 93.590476
1909.000000, 93.622921
1908.000000, 93.707150
1907.000000, 93.725740
1906.000000, 93.760870
1905.000000, 93.790771
1904.000000, 93.790308
1903.000000, 93.757949
1902.000000, 93.745521
1901.000000, 93.759034
1900.000000, 93.789720
1899.000000, 93.764768
1898.000000, 93.706502
1897.000000, 93.676909
1896.000000, 93.687057
1895.000000, 93.724713
1894.000000, 93.745618
1893.000000, 93.754366
1892.000000, 93.746929
1891.000000, 93.717011
1890.000000, 93.705319
1889.000000, 93.700064
1888.000000, 93.680436
1887.000000, 93.696359
1886.000000, 93.690367
1885.000000, 93.666174
1884.000000, 93.675763
1883.000000, 93.697356
1882.000000, 93.695521
1881.000000, 93.679521
1880.000000, 93.718025
1879.000000, 93.703500
1878.000000, 93.673169
1877.000000, 93.687218
1876.000000, 93.738962
1875.000000, 93.744219
1874.000000, 93.680359
1873.000000, 93.669157
1872.000000, 93.640720
1871.000000, 93.664685
1870.000000, 93.688389
1869.000000, 93.695080
1868.000000, 93.703381
1867.000000, 93.704864
1866.000000, 93.736435
1865.000000, 93.746204
1864.000000, 93.731195
1863.000000, 93.731802
1862.000000, 93.714411
1861.000000, 93.685726
1860.000000, 93.672610
1859.000000, 93.680257
1858.000000, 93.694702
1857.000000, 93.713335
1856.000000, 93.693393
1855.000000, 93.706011
1854.000000, 93.651391
1853.000000, 93.627093
1852.000000, 93.639754
1851.000000, 93.632995
1850.000000, 93.675088
1849.000000, 93.688922
1848.000000, 93.746465
1847.000000, 93.762001
1846.000000, 93.733639
1845.000000, 93.695011
1844.000000, 93.696256
1843.000000, 93.733615
1842.000000, 93.854005
1841.000000, 93.788745
1840.000000, 93.697648
1839.000000, 93.650082
1838.000000, 93.627799
1837.000000, 93.575266
1836.000000, 93.692838
1835.000000, 93.739863
1834.000000, 93.726479
1833.000000, 93.738557
1832.000000, 93.718159
1831.000000, 93.639563
1830.000000, 93.610524
1829.000000, 93.627131
1828.000000, 93.660820
1827.000000, 93.715190
1826.000000, 93.788138
1825.000000, 93.536664
1824.000000, 93.671558
1823.000000, 93.708368
1822.000000, 93.797385
1821.000000, 93.720137
1820.000000, 93.669738
1819.000000, 93.650364
1818.000000, 93.646930
1817.000000, 93.684986
1816.000000, 93.745616
1815.000000, 93.788639
1814.000000, 93.795181
1813.000000, 93.709173
1812.000000, 93.643617
1811.000000, 93.683323
1810.000000, 93.716127
1809.000000, 93.735003
1808.000000, 93.730339
1807.000000, 93.685564
1806.000000, 93.761296
1805.000000, 93.753832
1804.000000, 93.721220
1803.000000, 93.736655
1802.000000, 93.729518
1801.000000, 93.743968
1800.000000, 93.706815
1799.000000, 93.715678
1798.000000, 93.724958
1797.000000, 93.726382
1796.000000, 93.691135
1795.000000, 93.719279
1794.000000, 93.713342
1793.000000, 93.705758
1792.000000, 93.728280
1791.000000, 93.735361
1790.000000, 93.708048
1789.000000, 93.692980
1788.000000, 93.733156
1787.000000, 93.723305
1786.000000, 93.727419
1785.000000, 93.735339
1784.000000, 93.743034
1783.000000, 93.704921
1782.000000, 93.707060
1781.000000, 93.701674
1780.000000, 93.701351
1779.000000, 93.688393
1778.000000, 93.713448
1777.000000, 93.690128
1776.000000, 93.718549
1775.000000, 93.711498
1774.000000, 93.725910
1773.000000, 93.724124
1772.000000, 93.712017
1771.000000, 93.715740
1770.000000, 93.707245
1769.000000, 93.702695
1768.000000, 93.715592
1767.000000, 93.724099
1766.000000, 93.715753
1765.000000, 93.723526
1764.000000, 93.694418
1763.000000, 93.719529
1762.000000, 93.720927
1761.000000, 93.732473
1760.000000, 93.727587
1759.000000, 93.717705
1758.000000, 93.724521
1757.000000, 93.704920
1756.000000, 93.685498
1755.000000, 93.714684
1754.000000, 93.731443
1753.000000, 93.742539
1752.000000, 93.730797
1751.000000, 93.728627
1750.000000, 93.736684
1749.000000, 93.723224
1748.000000, 93.704971
1747.000000, 93.699570
1746.000000, 93.711297
1745.000000, 93.734905
1744.000000, 93.730422
1743.000000, 93.726401
1742.000000, 93.718923
1741.000000, 93.704997
1740.000000, 93.699795
1739.000000, 93.697588
1738.000000, 93.709044
1737.000000, 93.721042
1736.000000, 93.725727
1735.000000, 93.731948
1734.000000, 93.723447
1733.000000, 93.716177
1732.000000, 93.725095
1731.000000, 93.729813
1730.000000, 93.719002
1729.000000, 93.711076
1728.000000, 93.706908
1727.000000, 93.695976
1726.000000, 93.701562
1725.000000, 93.706185
1724.000000, 93.730119
1723.000000, 93.729766
1722.000000, 93.729210
1721.000000, 93.722476
1720.000000, 93.731877
1719.000000, 93.717951
1718.000000, 93.703657
1717.000000, 93.708507
1716.000000, 93.709852
1715.000000, 93.711524
1714.000000, 93.713821
1713.000000, 93.709761
1712.000000, 93.731731
1711.000000, 93.724425
1710.000000, 93.715438
1709.000000, 93.721037
1708.000000, 93.712210
1707.000000, 93.696857
1706.000000, 93.694578
1705.000000, 93.699338
1704.000000, 93.693166
1703.000000, 93.696415
1702.000000, 93.696425
1701.000000, 93.703945
1700.000000, 93.721403
1699.000000, 93.719527
1698.000000, 93.716477
1697.000000, 93.702494
1696.000000, 93.711434
1695.000000, 93.714638
1694.000000, 93.708402
1693.000000, 93.697257
1692.000000, 93.692630
1691.000000, 93.693535
1690.000000, 93.695750
1689.000000, 93.695297
1688.000000, 93.690932
1687.000000, 93.692451
1686.000000, 93.696386
1685.000000, 93.709226
1684.000000, 93.710201
1683.000000, 93.710977
1682.000000, 93.726982
1681.000000, 93.736734
1680.000000, 93.717286
1679.000000, 93.722466
1678.000000, 93.735162
1677.000000, 93.727560
1676.000000, 93.705208
1675.000000, 93.701667
1674.000000, 93.716648
1673.000000, 93.717881
1672.000000, 93.722112
1671.000000, 93.724386
1670.000000, 93.721237
1669.000000, 93.723204
1668.000000, 93.721248
1667.000000, 93.723420
1666.000000, 93.712070
1665.000000, 93.705777
1664.000000, 93.703649
1663.000000, 93.695107
1662.000000, 93.704164
1661.000000, 93.705494
1660.000000, 93.706689
1659.000000, 93.726931
1658.000000, 93.733335
1657.000000, 93.721883
1656.000000, 93.712902
1655.000000, 93.711968
1654.000000, 93.711880
1653.000000, 93.698232
1652.000000, 93.692936
1651.000000, 93.708066
1650.000000, 93.717044
1649.000000, 93.716510
1648.000000, 93.712982
1647.000000, 93.702385
1646.000000, 93.702619
1645.000000, 93.711391
1644.000000, 93.707301
1643.000000, 93.707487
1642.000000, 93.709067
1641.000000, 93.708626
1640.000000, 93.701185
1639.000000, 93.702485
1638.000000, 93.702057
1637.000000, 93.700546
1636.000000, 93.707017
1635.000000, 93.716464
1634.000000, 93.719706
1633.000000, 93.712047
1632.000000, 93.716101
1631.000000, 93.708224
1630.000000, 93.700463
1629.000000, 93.694345
1628.000000, 93.692714
1627.000000, 93.694474
1626.000000, 93.706355
1625.000000, 93.702054
1624.000000, 93.703881
1623.000000, 93.717233
1622.000000, 93.723331
1621.000000, 93.713871
1620.000000, 93.694382
1619.000000, 93.691714
1618.000000, 93.695485
1617.000000, 93.706802
1616.000000, 93.719279
1615.000000, 93.704176
1614.000000, 93.715028
1613.000000, 93.721830
1612.000000, 93.722135
1611.000000, 93.714876
1610.000000, 93.708452
1609.000000, 93.709316
1608.000000, 93.710046
1607.000000, 93.711760
1606.000000, 93.717888
1605.000000, 93.709588
1604.000000, 93.687579
1603.000000, 93.688510
1602.000000, 93.694424
1601.000000, 93.708278
1600.000000, 93.695891
1599.000000, 93.673562
1598.000000, 93.667993
1597.000000, 93.678957
1596.000000, 93.667268
1595.000000, 93.689142
1594.000000, 93.707339
1593.000000, 93.681118
1592.000000, 93.678924
1591.000000, 93.689156
1590.000000, 93.691998
1589.000000, 93.677382
1588.000000, 93.689293
1587.000000, 93.680913
1586.000000, 93.681300
1585.000000, 93.690977
1584.000000, 93.677208
1583.000000, 93.682683
1582.000000, 93.687245
1581.000000, 93.681750
1580.000000, 93.690842
1579.000000, 93.690945
1578.000000, 93.711527
1577.000000, 93.715960
1576.000000, 93.708884
1575.000000, 93.708484
1574.000000, 93.691031
1573.000000, 93.675457
1572.000000, 93.679685
1571.000000, 93.670185
1570.000000, 93.681304
1569.000000, 93.670827
1568.000000, 93.672226
1567.000000, 93.691197
1566.000000, 93.707843
1565.000000, 93.698977
1564.000000, 93.698396
1563.000000, 93.702458
1562.000000, 93.682364
1561.000000, 93.692277
1560.000000, 93.701110
1559.000000, 93.684185
1558.000000, 93.672166
1557.000000, 93.660323
1556.000000, 93.684973
1555.000000, 93.680975
1554.000000, 93.695362
1553.000000, 93.678478
1552.000000, 93.676144
1551.000000, 93.672596
1550.000000, 93.680197
1549.000000, 93.676509
1548.000000, 93.705516
1547.000000, 93.706388
1546.000000, 93.703356
1545.000000, 93.683199
1544.000000, 93.675155
1543.000000, 93.659103
1542.000000, 93.682712
1541.000000, 93.684967
1540.000000, 93.675002
1539.000000, 93.671183
1538.000000, 93.688417
1537.000000, 93.660643
1536.000000, 93.675132
1535.000000, 93.669063
1534.000000, 93.682926
1533.000000, 93.675528
1532.000000, 93.683862
1531.000000, 93.691713
1530.000000, 93.693536
1529.000000, 93.672186
1528.000000, 93.667706
1527.000000, 93.656028
1526.000000, 93.662260
1525.000000, 93.673700
1524.000000, 93.663819
1523.000000, 93.675120
1522.000000, 93.688015
1521.000000, 93.682868
1520.000000, 93.663414
1519.000000, 93.664037
1518.000000, 93.654323
1517.000000, 93.644304
1516.000000, 93.654332
1515.000000, 93.648406
1514.000000, 93.650081
1513.000000, 93.679592
1512.000000, 93.685395
1511.000000, 93.656061
1510.000000, 93.672374
1509.000000, 93.647149
1508.000000, 93.640018
1507.000000, 93.660780
1506.000000, 93.671936
1505.000000, 93.692242
1504.000000, 93.680301
1503.000000, 93.654774
1502.000000, 93.663729
1501.000000, 93.661561
1500.000000, 93.654253
1499.000000, 93.646367
1498.000000, 93.658489
1497.000000, 93.667497
1496.000000, 93.656277
1495.000000, 93.664267
1494.000000, 93.679470
1493.000000, 93.676210
1492.000000, 93.666840
1491.000000, 93.648153
1490.000000, 93.636999
1489.000000, 93.643867
1488.000000, 93.646061
1487.000000, 93.642761
1486.000000, 93.649206
1485.000000, 93.626051
1484.000000, 93.630065
1483.000000, 93.630032
1482.000000, 93.664351
1481.000000, 93.670632
1480.000000, 93.665590
1479.000000, 93.681177
1478.000000, 93.655394
1477.000000, 93.656160
1476.000000, 93.663715
1475.000000, 93.655110
1474.000000, 93.684423
1473.000000, 93.672569
1472.000000, 93.682547
1471.000000, 93.680243
1470.000000, 93.668974
1469.000000, 93.657320
1468.000000, 93.651476
1467.000000, 93.648654
1466.000000, 93.620791
1465.000000, 93.610995
1464.000000, 93.613142
1463.000000, 93.651269
1462.000000, 93.666656
1461.000000, 93.648005
1460.000000, 93.648187
1459.000000, 93.643970
1458.000000, 93.661445
1457.000000, 93.640184
1456.000000, 93.640589
1455.000000, 93.664440
1454.000000, 93.698385
1453.000000, 93.663834
1452.000000, 93.686812
1451.000000, 93.695305
1450.000000, 93.687179
1449.000000, 93.654669
1448.000000, 93.634420
1447.000000, 93.649745
1446.000000, 93.726417
1445.000000, 93.688401
1444.000000, 93.636657
1443.000000, 93.598994
1442.000000, 93.643694
1441.000000, 93.642584
1440.000000, 93.655118
1439.000000, 93.640066
1438.000000, 93.639469
1437.000000, 93.660262
1436.000000, 93.654682
1435.000000, 93.646225
1434.000000, 93.653703
1433.000000, 93.657854
1432.000000, 93.657377
1431.000000, 93.671457
1430.000000, 93.661664
1429.000000, 93.638174
1428.000000, 93.642761
1427.000000, 93.650353
1426.000000, 93.643914
1425.000000, 93.653579
1424.000000, 93.652584
1423.000000, 93.669135
1422.000000, 93.663322
1421.000000, 93.633983
1420.000000, 93.636677
1419.000000, 93.636633
1418.000000, 93.634439
1417.000000, 93.621310
1416.000000, 93.621690
1415.000000, 93.646811
1414.000000, 93.673793
1413.000000, 93.643945
1412.000000, 93.625043
1411.000000, 93.628599
1410.000000, 93.627856
1409.000000, 93.625924
1408.000000, 93.635703
1407.000000, 93.640384
1406.000000, 93.612750
1405.000000, 93.733415
1404.000000, 93.768560
1403.000000, 93.575915
1402.000000, 93.585286
1401.000000, 93.680842
1400.000000, 93.677168
1399.000000, 93.620309
1398.000000, 93.576878
1397.000000, 93.604682
1396.000000, 93.672447
1395.000000, 93.684132
1394.000000, 93.628195
1393.000000, 93.596916
1392.000000, 93.621873
1391.000000, 93.648818
1390.000000, 93.625964
1389.000000, 93.630646
1388.000000, 93.693087
1387.000000, 93.672682
1386.000000, 93.619334
1385.000000, 93.616844
1384.000000, 93.621889
1383.000000, 93.638489
1382.000000, 93.626505
1381.000000, 93.577658
1380.000000, 93.569376
1379.000000, 93.581791
1378.000000, 93.606902
1377.000000, 93.636503
1376.000000, 93.624034
1375.000000, 93.652461
1374.000000, 93.657566
1373.000000, 93.558461
1372.000000, 93.590589
1371.000000, 93.651236
1370.000000, 93.613069
1369.000000, 93.589060
1368.000000, 93.602292
1367.000000, 93.619654
1366.000000, 93.604480
1365.000000, 93.649866
1364.000000, 93.695040
1363.000000, 93.668173
1362.000000, 93.670316
1361.000000, 93.618977
1360.000000, 93.561316
1359.000000, 93.571695
1358.000000, 93.609221
1357.000000, 93.647268
1356.000000, 93.683240
1355.000000, 93.743034
1354.000000, 93.711249
1353.000000, 93.617792
1352.000000, 93.598784
1351.000000, 93.582733
1350.000000, 93.571579
1349.000000, 93.604939
1348.000000, 93.637009
1347.000000, 93.641535
1346.000000, 93.633178
1345.000000, 93.633075
1344.000000, 93.621421
1343.000000, 93.601303
1342.000000, 93.635566
1341.000000, 93.654010
1340.000000, 93.646460
1339.000000, 93.631091
1338.000000, 93.609576
1337.000000, 93.598428
1336.000000, 93.627266
1335.000000, 93.648409
1334.000000, 93.650862
1333.000000, 93.586279
1332.000000, 93.580546
1331.000000, 93.607935
1330.000000, 93.618298
1329.000000, 93.642904
1328.000000, 93.653915
1327.000000, 93.636612
1326.000000, 93.623270
1325.000000, 93.640410
1324.000000, 93.642954
1323.000000, 93.652959
1322.000000, 93.627743
1321.000000, 93.615833
1320.000000, 93.608189
1319.000000, 93.618910
1318.000000, 93.623477
1317.000000, 93.636224
1316.000000, 93.624809
1315.000000, 93.606724
1314.000000, 93.618300
1313.000000, 93.625650
1312.000000, 93.609700
1311.000000, 93.593699
1310.000000, 93.601734
1309.000000, 93.598489
1308.000000, 93.628393
1307.000000, 93.625180
1306.000000, 93.609950
1305.000000, 93.615105
1304.000000, 93.615718
1303.000000, 93.613487
1302.000000, 93.617812
1301.000000, 93.608286
1300.000000, 93.625445
1299.000000, 93.635481
1298.000000, 93.616389
1297.000000, 93.613663
1296.000000, 93.615214
1295.000000, 93.641191
1294.000000, 93.624197
1293.000000, 93.603546
1292.000000, 93.601022
1291.000000, 93.625737
1290.000000, 93.620681
1289.000000, 93.617961
1288.000000, 93.643139
1287.000000, 93.625844
1286.000000, 93.613856
1285.000000, 93.592138
1284.000000, 93.607775
1283.000000, 93.610318
1282.000000, 93.626416
1281.000000, 93.626609
1280.000000, 93.594054
1279.000000, 93.608350
1278.000000, 93.591871
1277.000000, 93.593725
1276.000000, 93.594768
1275.000000, 93.594868
1274.000000, 93.612617
1273.000000, 93.594660
1272.000000, 93.599386
1271.000000, 93.607486
1270.000000, 93.617734
1269.000000, 93.609888
1268.000000, 93.625622
1267.000000, 93.636490
1266.000000, 93.603400
1265.000000, 93.620398
1264.000000, 93.631763
1263.000000, 93.635615
1262.000000, 93.643166
1261.000000, 93.617782
1260.000000, 93.629126
1259.000000, 93.626104
1258.000000, 93.618624
1257.000000, 93.645687
1256.000000, 93.621614
1255.000000, 93.611138
1254.000000, 93.607055
1253.000000, 93.634752
1252.000000, 93.648869
1251.000000, 93.644290
1250.000000, 93.646367
1249.000000, 93.651039
1248.000000, 93.621477
1247.000000, 93.607144
1246.000000, 93.612138
1245.000000, 93.618874
1244.000000, 93.605642
1243.000000, 93.605230
1242.000000, 93.602746
1241.000000, 93.606704
1240.000000, 93.615730
1239.000000, 93.613687
1238.000000, 93.616884
1237.000000, 93.627125
1236.000000, 93.644481
1235.000000, 93.620646
1234.000000, 93.633935
1233.000000, 93.627117
1232.000000, 93.626905
1231.000000, 93.596395
1230.000000, 93.617147
1229.000000, 93.622009
1228.000000, 93.602141
1227.000000, 93.614919
1226.000000, 93.605313
1225.000000, 93.606743
1224.000000, 93.599556
1223.000000, 93.619678
1222.000000, 93.628185
1221.000000, 93.629986
1220.000000, 93.611944
1219.000000, 93.607713
1218.000000, 93.602374
1217.000000, 93.606465
1216.000000, 93.638761
1215.000000, 93.624883
1214.000000, 93.594359
1213.000000, 93.604821
1212.000000, 93.609090
1211.000000, 93.615549
1210.000000, 93.628867
1209.000000, 93.622475
1208.000000, 93.596164
1207.000000, 93.594645
1206.000000, 93.604632
1205.000000, 93.627636
1204.000000, 93.620452
1203.000000, 93.616653
1202.000000, 93.614206
1201.000000, 93.621782
1200.000000, 93.624742
1199.000000, 93.608515
1198.000000, 93.606427
1197.000000, 93.607839
1196.000000, 93.624032
1195.000000, 93.620888
1194.000000, 93.609650
1193.000000, 93.598555
1192.000000, 93.598250
1191.000000, 93.611815
1190.000000, 93.615911
1189.000000, 93.595820
1188.000000, 93.580480
1187.000000, 93.568581
1186.000000, 93.580981
1185.000000, 93.572040
1184.000000, 93.551025
1183.000000, 93.532772
1182.000000, 93.553278
1181.000000, 93.578106
1180.000000, 93.580221
1179.000000, 93.584920
1178.000000, 93.578350
1177.000000, 93.578840
1176.000000, 93.573261
1175.000000, 93.565591
1174.000000, 93.561629
1173.000000, 93.557206
1172.000000, 93.556361
1171.000000, 93.566426
1170.000000, 93.589194
1169.000000, 93.591058
1168.000000, 93.576981
1167.000000, 93.563535
1166.000000, 93.553630
1165.000000, 93.553756
1164.000000, 93.581429
1163.000000, 93.589433
1162.000000, 93.577963
1161.000000, 93.575603
1160.000000, 93.572156
1159.000000, 93.572520
1158.000000, 93.577432
1157.000000, 93.574789
1156.000000, 93.568531
1155.000000, 93.568417
1154.000000, 93.566004
1153.000000, 93.566898
1152.000000, 93.571335
1151.000000, 93.567912
1150.000000, 93.567306
1149.000000, 93.569742
1148.000000, 93.564906
1147.000000, 93.572524
1146.000000, 93.558839
1145.000000, 93.528703
1144.000000, 93.550645
1143.000000, 93.568648
1142.000000, 93.536192
1141.000000, 93.542115
1140.000000, 93.568547
1139.000000, 93.567785
1138.000000, 93.576768
1137.000000, 93.579534
1136.000000, 93.583333
1135.000000, 93.530053
1134.000000, 93.537158
1133.000000, 93.581546
1132.000000, 93.566679
1131.000000, 93.574270
1130.000000, 93.565926
1129.000000, 93.555685
1128.000000, 93.580577
1127.000000, 93.581933
1126.000000, 93.561820
1125.000000, 93.565079
1124.000000, 93.565742
1123.000000, 93.555385
1122.000000, 93.570973
1121.000000, 93.570176
1120.000000, 93.571154
1119.000000, 93.574192
1118.000000, 93.567935
1117.000000, 93.562597
1116.000000, 93.567285
1115.000000, 93.568185
1114.000000, 93.558461
1113.000000, 93.567444
1112.000000, 93.561520
1111.000000, 93.556787
1110.000000, 93.550745
1109.000000, 93.550299
1108.000000, 93.559451
1107.000000, 93.550974
1106.000000, 93.556077
1105.000000, 93.562601
1104.000000, 93.557689
1103.000000, 93.559288
1102.000000, 93.561257
1101.000000, 93.541619
1100.000000, 93.543870
1099.000000, 93.544995
1098.000000, 93.551541
1097.000000, 93.555318
1096.000000, 93.552748
1095.000000, 93.536701
1094.000000, 93.542057
1093.000000, 93.543796
1092.000000, 93.543580
1091.000000, 93.551926
1090.000000, 93.565978
1089.000000, 93.541705
1088.000000, 93.545074
1087.000000, 93.538175
1086.000000, 93.534538
1085.000000, 93.539696
1084.000000, 93.543742
1083.000000, 93.557808
1082.000000, 93.554467
1081.000000, 93.532970
1080.000000, 93.536620
1079.000000, 93.536416
1078.000000, 93.535665
1077.000000, 93.531792
1076.000000, 93.539918
1075.000000, 93.526664
1074.000000, 93.521226
1073.000000, 93.523692
1072.000000, 93.528381
1071.000000, 93.521909
1070.000000, 93.523408
1069.000000, 93.520964
1068.000000, 93.522998
1067.000000, 93.522580
1066.000000, 93.521732
1065.000000, 93.536323
1064.000000, 93.547805
1063.000000, 93.545243
1062.000000, 93.549901
1061.000000, 93.555687
1060.000000, 93.563006
1059.000000, 93.551975
1058.000000, 93.530425
1057.000000, 93.532624
1056.000000, 93.527309
1055.000000, 93.522870
1054.000000, 93.512829
1053.000000, 93.522077
1052.000000, 93.525181
1051.000000, 93.514095
1050.000000, 93.528344
1049.000000, 93.516843
1048.000000, 93.523747
1047.000000, 93.530341
1046.000000, 93.524852
1045.000000, 93.525465
1044.000000, 93.529256
1043.000000, 93.524681
1042.000000, 93.534128
1041.000000, 93.534043
1040.000000, 93.536902
1039.000000, 93.534805
1038.000000, 93.514740
1037.000000, 93.515050
1036.000000, 93.530227
1035.000000, 93.533807
1034.000000, 93.504774
1033.000000, 93.503009
1032.000000, 93.510459
1031.000000, 93.500097
1030.000000, 93.523570
1029.000000, 93.511190
1028.000000, 93.502900
1027.000000, 93.511239
1026.000000, 93.491869
1025.000000, 93.496223
1024.000000, 93.495079
1023.000000, 93.518900
1022.000000, 93.509687
1021.000000, 93.507128
1020.000000, 93.514685
1019.000000, 93.507186
1018.000000, 93.517102
1017.000000, 93.512733
1016.000000, 93.513408
1015.000000, 93.498045
1014.000000, 93.507481
1013.000000, 93.519195
1012.000000, 93.493513
1011.000000, 93.490283
1010.000000, 93.507223
1009.000000, 93.505890
1008.000000, 93.498146
1007.000000, 93.515626
1006.000000, 93.489568
1005.000000, 93.487263
1004.000000, 93.502289
1003.000000, 93.508621
1002.000000, 93.479018
1001.000000, 93.500671
1000.000000, 93.484175
999.000000, 93.492958
998.000000, 93.478263
997.000000, 93.498500
996.000000, 93.496050
995.000000, 93.484155
994.000000, 93.479848
993.000000, 93.482187
992.000000, 93.502657
991.000000, 93.496931
990.000000, 93.488317
989.000000, 93.494256
988.000000, 93.490119
987.000000, 93.470739
986.000000, 93.504125
985.000000, 93.507218
984.000000, 93.513575
983.000000, 93.517709
982.000000, 93.483826
981.000000, 93.482004
980.000000, 93.486191
979.000000, 93.481334
978.000000, 93.468328
977.000000, 93.484948
976.000000, 93.483277
975.000000, 93.490001
974.000000, 93.519325
973.000000, 93.520221
972.000000, 93.497180
971.000000, 93.500429
970.000000, 93.502754
969.000000, 93.494871
968.000000, 93.502282
967.000000, 93.492141
966.000000, 93.488590
965.000000, 93.487340
964.000000, 93.487860
963.000000, 93.498669
962.000000, 93.478502
961.000000, 93.451425
960.000000, 93.477248
959.000000, 93.469646
958.000000, 93.494212
957.000000, 93.494187
956.000000, 93.474052
955.000000, 93.467408
954.000000, 93.448224
953.000000, 93.460050
952.000000, 93.483639
951.000000, 93.484309
950.000000, 93.473680
949.000000, 93.464808
948.000000, 93.475318
947.000000, 93.474515
946.000000, 93.476282
945.000000, 93.481832
944.000000, 93.481756
943.000000, 93.475228
942.000000, 93.472833
941.000000, 93.468003
940.000000, 93.474510
939.000000, 93.475760
938.000000, 93.456331
937.000000, 93.462823
936.000000, 93.465534
935.000000, 93.493518
934.000000, 93.473617
933.000000, 93.443565
932.000000, 93.474912
931.000000, 93.494538
930.000000, 93.462305
929.000000, 93.478926
928.000000, 93.512777
927.000000, 93.491698
926.000000, 93.464356
925.000000, 93.470606
924.000000, 93.442194
923.000000, 93.463001
922.000000, 93.463270
921.000000, 93.469622
920.000000, 93.449579
919.000000, 93.495977
918.000000, 93.489474
917.000000, 93.475525
916.000000, 93.461122
915.000000, 93.489668
914.000000, 93.479565
913.000000, 93.473579
912.000000, 93.469619
911.000000, 93.472563
910.000000, 93.467016
909.000000, 93.456321
908.000000, 93.447436
907.000000, 93.459161
906.000000, 93.451832
905.000000, 93.425817
904.000000, 93.443478
903.000000, 93.438637
902.000000, 93.443226
901.000000, 93.467693
900.000000, 93.469371
899.000000, 93.465004
898.000000, 93.464617
897.000000, 93.480974
896.000000, 93.478121
895.000000, 93.462060
894.000000, 93.448320
893.000000, 93.449052
892.000000, 93.459561
891.000000, 93.439133
890.000000, 93.463985
889.000000, 93.481866
888.000000, 93.453156
887.000000, 93.456442
886.000000, 93.462451
885.000000, 93.468645
884.000000, 93.462350
883.000000, 93.461830
882.000000, 93.467657
881.000000, 93.468484
880.000000, 93.461917
879.000000, 93.448299
878.000000, 93.409863
877.000000, 93.425433
876.000000, 93.452829
875.000000, 93.458259
874.000000, 93.460071
873.000000, 93.430179
872.000000, 93.475038
871.000000, 93.489465
870.000000, 93.479574
869.000000, 93.465441
868.000000, 93.455974
867.000000, 93.464748
866.000000, 93.438260
865.000000, 93.484258
864.000000, 93.485209
863.000000, 93.454062
862.000000, 93.456691
861.000000, 93.431686
860.000000, 93.420063
859.000000, 93.376302
858.000000, 93.443447
857.000000, 93.447301
856.000000, 93.353843
855.000000, 93.371630
854.000000, 93.417622
853.000000, 93.412602
852.000000, 93.349770
851.000000, 93.328529
850.000000, 93.376368
849.000000, 93.441135
848.000000, 93.397499
847.000000, 93.343366
846.000000, 93.332412
845.000000, 93.378123
844.000000, 93.357763
843.000000, 93.344806
842.000000, 93.374515
841.000000, 93.383014
840.000000, 93.327194
839.000000, 93.318367
838.000000, 93.346624
837.000000, 93.379779
836.000000, 93.381504
835.000000, 93.320381
834.000000, 93.340751
833.000000, 93.358977
832.000000, 93.330330
831.000000, 93.358400
830.000000, 93.392031
829.000000, 93.326437
828.000000, 93.276762
827.000000, 93.321349
826.000000, 93.351511
825.000000, 93.358598
824.000000, 93.392065
823.000000, 93.343794
822.000000, 93.323701
821.000000, 93.338354
820.000000, 93.360692
819.000000, 93.333375
818.000000, 93.371686
817.000000, 93.355950
816.000000, 93.362921
815.000000, 93.375859
814.000000, 93.338591
813.000000, 93.337230
812.000000, 93.368071
811.000000, 93.338331
810.000000, 93.326130
809.000000, 93.367373
808.000000, 93.318537
807.000000, 93.306992
806.000000, 93.308219
805.000000, 93.328947
804.000000, 93.303514
803.000000, 93.362794
802.000000, 93.332444
801.000000, 93.316252
800.000000, 93.359941
799.000000, 93.282141
798.000000, 93.319450
797.000000, 93.346886
796.000000, 93.305773
795.000000, 93.354667
794.000000, 93.305188
793.000000, 93.305290
792.000000, 93.337060
791.000000, 93.307471
790.000000, 93.273603
789.000000, 93.296350
788.000000, 93.345661
787.000000, 93.303746
786.000000, 93.318171
785.000000, 93.342448
784.000000, 93.303603
783.000000, 93.303911
782.000000, 93.253473
781.000000, 93.306632
780.000000, 93.327836
779.000000, 93.353748
778.000000, 93.329378
777.000000, 93.310678
776.000000, 93.307772
775.000000, 93.305471
774.000000, 93.314054
773.000000, 93.294160
772.000000, 93.363256
771.000000, 93.307564
770.000000, 93.322926
769.000000, 93.314250
768.000000, 93.376884
767.000000, 93.330193
766.000000, 93.285018
765.000000, 93.332161
764.000000, 93.292354
763.000000, 93.277150
762.000000, 93.330071
761.000000, 93.356529
760.000000, 93.290009
759.000000, 93.298771
758.000000, 93.313968
757.000000, 93.301681
756.000000, 93.272290
755.000000, 93.318926
754.000000, 93.265885
753.000000, 93.299208
752.000000, 93.335145
751.000000, 93.308756
750.000000, 93.295247
749.000000, 93.335049
748.000000, 93.283577
747.000000, 93.286934
746.000000, 93.320169
745.000000, 93.309590
744.000000, 93.362454
743.000000, 93.315724
742.000000, 93.261715
741.000000, 93.299063
740.000000, 93.298239
739.000000, 93.273667
738.000000, 93.288685
737.000000, 93.312651
736.000000, 93.263817
735.000000, 93.323739
734.000000, 93.315976
733.000000, 93.297170
732.000000, 93.296134
731.000000, 93.291650
730.000000, 93.243921
729.000000, 93.280442
728.000000, 93.305196
727.000000, 93.301783
726.000000, 93.345743
725.000000, 93.289041
724.000000, 93.262911
723.000000, 93.296334
722.000000, 93.268042
721.000000, 93.267414
720.000000, 93.339068
719.000000, 93.349283
718.000000, 93.301112
717.000000, 93.254493
716.000000, 93.295846
715.000000, 93.265018
714.000000, 93.326741
713.000000, 93.249438
712.000000, 93.242420
711.000000, 93.269597
710.000000, 93.261628
709.000000, 93.266560
708.000000, 93.285675
707.000000, 93.260397
706.000000, 93.213532
705.000000, 93.229347
704.000000, 93.260120
703.000000, 93.256050
702.000000, 93.298695
701.000000, 93.280497
700.000000, 93.225264
699.000000, 93.251758
698.000000, 93.264440
697.000000, 93.270987
696.000000, 93.276561
695.000000, 93.272448
694.000000, 93.241901
693.000000, 93.247952
692.000000, 93.275020
691.000000, 93.302068
690.000000, 93.276516
689.000000, 93.286258
688.000000, 93.253744
687.000000, 93.260433
686.000000, 93.265164
685.000000, 93.258718
684.000000, 93.251999
683.000000, 93.288548
682.000000, 93.260533
681.000000, 93.245076
680.000000, 93.279275
679.000000, 93.257170
678.000000, 93.292102
677.000000, 93.303547
676.000000, 93.254258
675.000000, 93.232579
674.000000, 93.273227
673.000000, 93.255096
672.000000, 93.305085
671.000000, 93.309016
670.000000, 93.226977
669.000000, 93.241861
668.000000, 93.256030
667.000000, 93.273867
666.000000, 93.256813
665.000000, 93.245535
664.000000, 93.246615
663.000000, 93.278017
662.000000, 93.247183
661.000000, 93.236288
660.000000, 93.270968
659.000000, 93.255793
658.000000, 93.209858
657.000000, 93.219454
656.000000, 93.238331
655.000000, 93.263070
654.000000, 93.274477
653.000000, 93.243518
652.000000, 93.204954
651.000000, 93.244283
650.000000, 93.228066
649.000000, 93.211205
648.000000, 93.278379
647.000000, 93.265244
646.000000, 93.260985
645.000000, 93.267892
644.000000, 93.256843
643.000000, 93.219362
642.000000, 93.252145
641.000000, 93.243661
640.000000, 93.226585
639.000000, 93.264631
638.000000, 93.252965
637.000000, 93.247523
636.000000, 93.256373
635.000000, 93.235759
634.000000, 93.217839
633.000000, 93.216868
632.000000, 93.207100
631.000000, 93.236431
630.000000, 93.244589
629.000000, 93.250735
628.000000, 93.233212
627.000000, 93.206322
626.000000, 93.229157
625.000000, 93.253435
624.000000, 93.232039
623.000000, 93.191777
622.000000, 93.190783
621.000000, 93.212965
620.000000, 93.227297
619.000000, 93.236942
618.000000, 93.239387
617.000000, 93.232947
616.000000, 93.217219
615.000000, 93.203147
614.000000, 93.195782
613.000000, 93.208801
612.000000, 93.245918
611.000000, 93.243675
610.000000, 93.215766
609.000000, 93.225504
608.000000, 93.196974
607.000000, 93.188819
606.000000, 93.241164
605.000000, 93.214317
604.000000, 93.201171
603.000000, 93.214186
602.000000, 93.210002
601.000000, 93.222968
600.000000, 93.236544
599.000000, 93.224518
598.000000, 93.212609
597.000000, 93.211836
596.000000, 93.207447
595.000000, 93.235441
594.000000, 93.246066
593.000000, 93.208994
592.000000, 93.184609
591.000000, 93.198180
590.000000, 93.185845
589.000000, 93.195306
588.000000, 93.199658
587.000000, 93.157199
586.000000, 93.176272
585.000000, 93.192459
584.000000, 93.183078
583.000000, 93.210270
582.000000, 93.183521
581.000000, 93.172840
580.000000, 93.165588
579.000000, 93.174550
578.000000, 93.189905
577.000000, 93.192510
576.000000, 93.193946
575.000000, 93.179722
574.000000, 93.155146
573.000000, 93.143799
572.000000, 93.151391
571.000000, 93.177384
570.000000, 93.188977
569.000000, 93.156153
568.000000, 93.148925
567.000000, 93.158959
566.000000, 93.169221
565.000000, 93.169603
564.000000, 93.165984
563.000000, 93.150138
562.000000, 93.140143
561.000000, 93.158600
560.000000, 93.160591
559.000000, 93.169367
558.000000, 93.169730
557.000000, 93.156284
556.000000, 93.190879
555.000000, 93.182479
554.000000, 93.160187
553.000000, 93.132507
552.000000, 93.137070
551.000000, 93.141712
550.000000, 93.166350
549.000000, 93.176275
548.000000, 93.155882
547.000000, 93.152756
546.000000, 93.155348
545.000000, 93.146949
544.000000, 93.167956
543.000000, 93.171945
542.000000, 93.144489
541.000000, 93.146413
540.000000, 93.166204
539.000000, 93.167909
538.000000, 93.157112
537.000000, 93.167704
536.000000, 93.163940
535.000000, 93.131319
534.000000, 93.146744
533.000000, 93.134384
532.000000, 93.128239
531.000000, 93.171522
530.000000, 93.161943
529.000000, 93.136558
528.000000, 93.140747
527.000000, 93.122382
526.000000, 93.117463
525.000000, 93.137701
524.000000, 93.114757
523.000000, 93.123162
522.000000, 93.152833
521.000000, 93.158674
520.000000, 93.161381
519.000000, 93.145916
518.000000, 93.107918
517.000000, 93.115050
516.000000, 93.125268
515.000000, 93.123757
514.000000, 93.138484
513.000000, 93.170177
512.000000, 93.114168
511.000000, 93.113717
510.000000, 93.112651
509.000000, 93.084427
508.000000, 93.081649
507.000000, 93.115406
506.000000, 93.107316
505.000000, 93.093793
504.000000, 93.116793
503.000000, 93.086117
502.000000, 93.103235
501.000000, 93.065242
500.000000, 93.063450
499.000000, 93.079885
498.000000, 93.064158
497.000000, 93.096164
496.000000, 93.102690
495.000000, 93.116126
494.000000, 93.062283
493.000000, 93.077778
492.000000, 93.040025
491.000000, 93.106802
490.000000, 93.079654
489.000000, 93.073525
488.000000, 93.077214
487.000000, 93.017758
486.000000, 93.045918
485.000000, 93.049665
484.000000, 93.089242
483.000000, 93.080514
482.000000, 93.071617
481.000000, 93.067354
480.000000, 93.086019
479.000000, 93.070037
478.000000, 93.064953
477.000000, 93.082417
476.000000, 93.057619
475.000000, 93.022159
474.000000, 93.072331
473.000000, 93.058800
472.000000, 93.050422
471.000000, 93.044244
470.000000, 93.052715
469.000000, 93.009533
468.000000, 93.063331
467.000000, 93.028632
466.000000, 93.014728
465.000000, 93.104061
464.000000, 93.019110
463.000000, 93.004132
462.000000, 92.990868
461.000000, 93.006033
460.000000, 93.049891
459.000000, 93.023800
458.000000, 92.978496
457.000000, 92.956196
456.000000, 92.998100
455.000000, 92.970269
454.000000, 93.020771
453.000000, 93.016883
452.000000, 93.030129
451.000000, 92.984681
450.000000, 93.013597
449.000000, 92.944981
448.000000, 93.022142
447.000000, 92.986541
446.000000, 92.954449
445.000000, 92.968508
444.000000, 92.976025
443.000000, 92.992043
442.000000, 92.966327
441.000000, 92.970184
440.000000, 92.928187
439.000000, 92.962028
438.000000, 92.960238
437.000000, 93.016524
436.000000, 93.006806
435.000000, 92.986463
434.000000, 92.964537
433.000000, 92.930744
432.000000, 92.921235
431.000000, 92.935230
430.000000, 92.963374
429.000000, 92.975243
428.000000, 92.951125
427.000000, 92.949243
426.000000, 92.929011
425.000000, 92.922197
424.000000, 92.944759
423.000000, 92.939538
422.000000, 92.922852
421.000000, 92.881322
420.000000, 92.897615
419.000000, 92.936790
418.000000, 92.948730
417.000000, 92.916253
416.000000, 92.894129
415.000000, 92.862229
414.000000, 92.926437
413.000000, 92.893530
412.000000, 92.920453
411.000000, 92.908862
410.000000, 92.881216
409.000000, 92.883608
408.000000, 92.911808
407.000000, 92.846302
406.000000, 92.883825
405.000000, 92.895451
404.000000, 92.857734
403.000000, 92.851658
402.000000, 92.873212
401.000000, 92.897694
400.000000, 92.853639
399.000000, 92.819307
398.000000, 92.819253
397.000000, 92.842058
396.000000, 92.854479
395.000000, 92.821877
394.000000, 92.862702
393.000000, 92.821998
392.000000, 92.772553
391.000000, 92.761229
390.000000, 92.800470
389.000000, 92.798722
388.000000, 92.806249
387.000000, 92.802382
386.000000, 92.787254
385.000000, 92.776930
384.000000, 92.790687
383.000000, 92.755558
382.000000, 92.782810
381.000000, 92.768361
380.000000, 92.739228
379.000000, 92.767332
378.000000, 92.781596
377.000000, 92.775554
376.000000, 92.751426
375.000000, 92.761758
374.000000, 92.745801
373.000000, 92.731771
372.000000, 92.775488
371.000000, 92.775787
370.000000, 92.749980
369.000000, 92.743653
368.000000, 92.722926
367.000000, 92.694172
366.000000, 92.706754
365.000000, 92.695651
364.000000, 92.718546
363.000000, 92.698391
362.000000, 92.683948
361.000000, 92.670850
360.000000, 92.675419
359.000000, 92.672638
358.000000, 92.659831
357.000000, 92.646600
356.000000, 92.660747
355.000000, 92.677299
354.000000, 92.654704
353.000000, 92.636128
352.000000, 92.639981
351.000000, 92.605727
350.000000, 92.592374
349.000000, 92.603053
348.000000, 92.600588
347.000000, 92.599595
346.000000, 92.577730
345.000000, 92.566401
344.000000, 92.604387
343.000000, 92.587728
342.000000, 92.583809
341.000000, 92.568108
340.000000, 92.530662
339.000000, 92.514672
338.000000, 92.521127
337.000000, 92.507668
336.000000, 92.524837
335.000000, 92.524450
334.000000, 92.495159
333.000000, 92.504639
332.000000, 92.525576
331.000000, 92.511042
330.000000, 92.502545
329.000000, 92.496299
328.000000, 92.482001
327.000000, 92.462346
326.000000, 92.457960
325.000000, 92.441327
324.000000, 92.423823
323.000000, 92.428804
322.000000, 92.411311
321.000000, 92.404175
320.000000, 92.388083
319.000000, 92.387174
318.000000, 92.439737
317.000000, 92.469670
316.000000, 92.450643
315.000000, 92.435999
314.000000, 92.400975
313.000000, 92.387704
312.000000, 92.409896
311.000000, 92.437320
310.000000, 92.422709
309.000000, 92.362372
308.000000, 92.369741
307.000000, 92.385155
306.000000, 92.357023
305.000000, 92.342563
304.000000, 92.333094
303.000000, 92.324645
302.000000, 92.296132
301.000000, 92.323180
300.000000, 92.320918
299.000000, 92.280335
298.000000, 92.233356
297.000000, 92.199206
296.000000, 92.180960
295.000000, 92.188120
294.000000, 92.207666
293.000000, 92.176354
292.000000, 92.112870
291.000000, 92.149407
290.000000, 92.114785
289.000000, 92.097552
288.000000, 92.088162
287.000000, 92.068076
286.000000, 92.029583
285.000000, 92.039406
284.000000, 92.045536
283.000000, 92.033082
282.000000, 92.002473
281.000000, 91.985023
280.000000, 91.964337
279.000000, 91.955636
278.000000, 91.910719
277.000000, 91.915283
276.000000, 91.924634
275.000000, 91.889242
274.000000, 91.835212
273.000000, 91.854934
272.000000, 91.809727
271.000000, 91.782138
270.000000, 91.751283
269.000000, 91.691386
268.000000, 91.661539
267.000000, 91.634212
266.000000, 91.559804
265.000000, 91.497498
264.000000, 91.441667
263.000000, 91.340984
262.000000, 91.218611
261.000000, 91.139562
260.000000, 91.018107
259.000000, 90.880811
258.000000, 90.722336
257.000000, 90.501984
256.000000, 90.226748
255.000000, 89.971448
254.000000, 89.723873
253.000000, 89.470251
252.000000, 89.151881
251.000000, 88.830655
250.000000, 88.514528
