nm, %T
3300.000000, 92.729462
3299.000000, 92.762885
3298.000000, 92.553017
3297.000000, 92.653738
3296.000000, 92.528810
3295.000000, 92.695767
3294.000000, 92.646194
3293.000000, 92.709749
3292.000000, 92.721347
3291.000000, 92.694663
3290.000000, 92.770226
3289.000000, 92.724038
3288.000000, 92.702305
3287.000000, 92.674413
3286.000000, 92.593826
3285.000000, 92.687714
3284.000000, 92.635859
3283.000000, 92.648558
3282.000000, 92.685485
3281.000000, 92.591739
3280.000000, 92.551622
3279.000000, 92.605380
3278.000000, 92.572827
3277.000000, 92.568907
3276.000000, 92.577970
3275.000000, 92.598710
3274.000000, 92.712174
3273.000000, 92.558499
3272.000000, 92.559368
3271.000000, 92.552928
3270.000000, 92.653514
3269.000000, 92.599065
3268.000000, 92.619158
3267.000000, 92.681921
3266.000000, 92.627056
3265.000000, 92.682942
3264.000000, 92.567649
3263.000000, 92.546635
3262.000000, 92.572516
3261.000000, 92.573775
3260.000000, 92.579636
3259.000000, 92.719824
3258.000000, 92.595111
3257.000000, 92.541402
3256.000000, 92.540380
3255.000000, 92.502363
3254.000000, 92.562401
3253.000000, 92.498972
3252.000000, 92.511082
3251.000000, 92.503340
3250.000000, 92.562250
3249.000000, 92.484585
3248.000000, 92.423452
3247.000000, 92.544759
3246.000000, 92.479661
3245.000000, 92.484118
3244.000000, 92.541041
3243.000000, 92.481906
3242.000000, 92.479860
3241.000000, 92.504870
3240.000000, 92.478348
3239.000000, 92.440905
3238.000000, 92.454682
3237.000000, 92.503430
3236.000000, 92.450116
3235.000000, 92.462516
3234.000000, 92.465940
3233.000000, 92.405381
3232.000000, 92.406191
3231.000000, 92.434726
3230.000000, 92.464288
3229.000000, 92.464970
3228.000000, 92.427394
3227.000000, 92.458416
3226.000000, 92.411940
3225.000000, 92.446183
3224.000000, 92.419391
3223.000000, 92.414660
3222.000000, 92.399272
3221.000000, 92.398380
3220.000000, 92.399980
3219.000000, 92.375739
3218.000000, 92.363763
3217.000000, 92.404833
3216.000000, 92.393252
3215.000000, 92.404723
3214.000000, 92.386532
3213.000000, 92.393320
3212.000000, 92.390628
3211.000000, 92.376292
3210.000000, 92.350660
3209.000000, 92.340748
3208.000000, 92.394014
3207.000000, 92.432694
3206.000000, 92.362269
3205.000000, 92.346143
3204.000000, 92.349424
3203.000000, 92.376761
3202.000000, 92.393735
3201.000000, 92.375221
3200.000000, 92.332711
3199.000000, 92.324714
3198.000000, 92.336703
3197.000000, 92.312809
3196.000000, 92.304128
3195.000000, 92.312070
3194.000000, 92.290047
3193.000000, 92.286899
3192.000000, 92.296153
3191.000000, 92.266069
3190.000000, 92.273015
3189.000000, 92.253889
3188.000000, 92.252869
3187.000000, 92.256605
3186.000000, 92.258547
3185.000000, 92.269506
3184.000000, 92.234463
3183.000000, 92.240974
3182.000000, 92.249282
3181.000000, 92.235185
3180.000000, 92.227670
3179.000000, 92.193923
3178.000000, 92.180168
3177.000000, 92.187240
3176.000000, 92.188318
3175.000000, 92.168226
3174.000000, 92.138031
3173.000000, 92.166337
3172.000000, 92.195928
3171.000000, 92.161456
3170.000000, 92.161059
3169.000000, 92.148786
3168.000000, 92.115183
3167.000000, 92.122461
3166.000000, 92.148152
3165.000000, 92.148562
3164.000000, 92.110359
3163.000000, 92.104342
3162.000000, 92.101377
3161.000000, 92.103723
3160.000000, 92.084305
3159.000000, 92.061565
3158.000000, 92.102219
3157.000000, 92.099787
3156.000000, 92.079892
3155.000000, 92.075401
3154.000000, 92.050469
3153.000000, 92.047445
3152.000000, 92.051103
3151.000000, 92.031652
3150.000000, 92.043487
3149.000000, 92.020441
3148.000000, 92.013604
3147.000000, 92.006049
3146.000000, 92.022530
3145.000000, 92.013584
3144.000000, 91.977847
3143.000000, 91.992801
3142.000000, 91.978665
3141.000000, 91.957731
3140.000000, 91.969914
3139.000000, 91.923068
3138.000000, 91.934886
3137.000000, 91.929507
3136.000000, 91.931393
3135.000000, 91.914054
3134.000000, 91.909635
3133.000000, 91.900429
3132.000000, 91.892174
3131.000000, 91.904849
3130.000000, 91.904459
3129.000000, 91.908547
3128.000000, 91.904586
3127.000000, 91.905163
3126.000000, 91.882843
3125.000000, 91.894241
3124.000000, 91.855584
3123.000000, 91.836003
3122.000000, 91.862755
3121.000000, 91.881011
3120.000000, 91.862734
3119.000000, 91.840218
3118.000000, 91.832137
3117.000000, 91.815388
3116.000000, 91.812562
3115.000000, 91.822314
3114.000000, 91.815210
3113.000000, 91.808238
3112.000000, 91.789643
3111.000000, 91.816155
3110.000000, 91.769123
3109.000000, 91.728118
3108.000000, 91.766054
3107.000000, 91.713036
3106.000000, 91.708502
3105.000000, 91.725640
3104.000000, 91.745346
3103.000000, 91.753544
3102.000000, 91.726431
3101.000000, 91.749185
3100.000000, 91.723013
3099.000000, 91.725943
3098.000000, 91.704425
3097.000000, 91.699106
3096.000000, 91.690146
3095.000000, 91.681541
3094.000000, 91.671487
3093.000000, 91.643958
3092.000000, 91.653181
3091.000000, 91.649604
3090.000000, 91.636956
3089.000000, 91.647631
3088.000000, 91.643838
3087.000000, 91.623350
3086.000000, 91.619137
3085.000000, 91.592169
3084.000000, 91.554307
3083.000000, 91.571565
3082.000000, 91.576801
3081.000000, 91.560537
3080.000000, 91.554429
3079.000000, 91.550958
3078.000000, 91.512666
3077.000000, 91.493947
3076.000000, 91.532388
3075.000000, 91.521688
3074.000000, 91.498114
3073.000000, 91.502469
3072.000000, 91.468031
3071.000000, 91.474564
3070.000000, 91.470394
3069.000000, 91.426694
3068.000000, 91.431378
3067.000000, 91.397298
3066.000000, 91.396094
3065.000000, 91.377787
3064.000000, 91.353757
3063.000000, 91.351797
3062.000000, 91.350500
3061.000000, 91.326817
3060.000000, 91.321847
3059.000000, 91.262432
3058.000000, 91.292401
3057.000000, 91.273659
3056.000000, 91.270315
3055.000000, 91.254018
3054.000000, 91.235065
3053.000000, 91.219413
3052.000000, 91.211178
3051.000000, 91.181397
3050.000000, 91.167786
3049.000000, 91.163070
3048.000000, 91.119248
3047.000000, 91.144208
3046.000000, 91.118652
3045.000000, 91.103975
3044.000000, 91.092212
3043.000000, 91.047110
3042.000000, 91.041442
3041.000000, 91.022198
3040.000000, 91.002948
3039.000000, 90.988404
3038.000000, 90.989664
3037.000000, 90.943249
3036.000000, 90.927469
3035.000000, 90.924476
3034.000000, 90.877547
3033.000000, 90.902826
3032.000000, 90.877714
3031.000000, 90.838794
3030.000000, 90.811903
3029.000000, 90.817336
3028.000000, 90.793920
3027.000000, 90.774131
3026.000000, 90.758358
3025.000000, 90.730944
3024.000000, 90.708567
3023.000000, 90.704342
3022.000000, 90.673127
3021.000000, 90.650023
3020.000000, 90.642222
3019.000000, 90.591395
3018.000000, 90.554212
3017.000000, 90.551901
3016.000000, 90.531205
3015.000000, 90.516276
3014.000000, 90.489777
3013.000000, 90.463309
3012.000000, 90.421534
3011.000000, 90.411309
3010.000000, 90.377021
3009.000000, 90.363281
3008.000000, 90.342154
3007.000000, 90.322520
3006.000000, 90.278813
3005.000000, 90.262663
3004.000000, 90.230588
3003.000000, 90.202376
3002.000000, 90.176600
3001.000000, 90.173790
3000.000000, 90.133288
2999.000000, 90.104897
2998.000000, 90.086096
2997.000000, 90.053386
2996.000000, 90.019937
2995.000000, 89.991145
2994.000000, 89.954036
2993.000000, 89.929590
2992.000000, 89.871975
2991.000000, 89.854552
2990.000000, 89.829548
2989.000000, 89.785476
2988.000000, 89.752466
2987.000000, 89.707869
2986.000000, 89.678845
2985.000000, 89.652614
2984.000000, 89.618717
2983.000000, 89.576802
2982.000000, 89.554354
2981.000000, 89.522384
2980.000000, 89.489679
2979.000000, 89.444503
2978.000000, 89.397934
2977.000000, 89.362817
2976.000000, 89.329392
2975.000000, 89.283877
2974.000000, 89.232652
2973.000000, 89.196165
2972.000000, 89.141696
2971.000000, 89.088429
2970.000000, 89.049663
2969.000000, 89.005544
2968.000000, 88.949224
2967.000000, 88.910638
2966.000000, 88.864431
2965.000000, 88.809952
2964.000000, 88.766022
2963.000000, 88.712148
2962.000000, 88.652507
2961.000000, 88.621977
2960.000000, 88.568675
2959.000000, 88.511270
2958.000000, 88.450260
2957.000000, 88.397502
2956.000000, 88.344468
2955.000000, 88.278977
2954.000000, 88.229806
2953.000000, 88.185092
2952.000000, 88.142800
2951.000000, 88.083614
2950.000000, 88.023956
2949.000000, 87.961422
2948.000000, 87.885868
2947.000000, 87.803473
2946.000000, 87.728349
2945.000000, 87.661787
2944.000000, 87.581681
2943.000000, 87.502605
2942.000000, 87.434587
2941.000000, 87.360049
2940.000000, 87.267517
2939.000000, 87.180681
2938.000000, 87.106659
2937.000000, 87.032656
2936.000000, 86.950716
2935.000000, 86.865814
2934.000000, 86.793219
2933.000000, 86.711755
2932.000000, 86.614866
2931.000000, 86.525463
2930.000000, 86.442159
2929.000000, 86.352761
2928.000000, 86.256824
2927.000000, 86.161699
2926.000000, 86.071621
2925.000000, 85.978118
2924.000000, 85.872348
2923.000000, 85.758317
2922.000000, 85.649763
2921.000000, 85.531067
2920.000000, 85.404576
2919.000000, 85.296871
2918.000000, 85.177033
2917.000000, 85.057861
2916.000000, 84.932515
2915.000000, 84.804213
2914.000000, 84.690539
2913.000000, 84.570544
2912.000000, 84.444023
2911.000000, 84.322403
2910.000000, 84.209238
2909.000000, 84.089093
2908.000000, 83.956776
2907.000000, 83.816869
2906.000000, 83.685542
2905.000000, 83.538932
2904.000000, 83.378845
2903.000000, 83.220577
2902.000000, 83.058636
2901.000000, 82.902208
2900.000000, 82.729451
2899.000000, 82.555122
2898.000000, 82.383081
2897.000000, 82.196279
2896.000000, 82.002842
2895.000000, 81.870535
2894.000000, 81.691681
2893.000000, 81.519915
2892.000000, 81.309681
2891.000000, 81.098490
2890.000000, 80.941679
2889.000000, 80.736070
2888.000000, 80.522174
2887.000000, 80.317586
2886.000000, 80.091135
2885.000000, 79.873820
2884.000000, 79.642586
2883.000000, 79.404169
2882.000000, 79.168460
2881.000000, 78.931477
2880.000000, 78.694287
2879.000000, 78.449354
2878.000000, 78.202149
2877.000000, 77.949645
2876.000000, 77.685900
2875.000000, 77.427913
2874.000000, 77.144658
2873.000000, 76.874535
2872.000000, 76.569253
2871.000000, 76.227143
2870.000000, 75.895490
2869.000000, 75.560830
2868.000000, 75.212590
2867.000000, 74.828326
2866.000000, 74.489971
2865.000000, 74.137213
2864.000000, 73.785751
2863.000000, 73.419791
2862.000000, 73.085741
2861.000000, 72.739364
2860.000000, 72.366860
2859.000000, 71.980813
2858.000000, 71.598741
2857.000000, 71.180111
2856.000000, 70.728538
2855.000000, 70.237325
2854.000000, 69.715672
2853.000000, 69.203944
2852.000000, 68.661448
2851.000000, 68.087006
2850.000000, 67.532504
2849.000000, 66.924527
2848.000000, 66.355285
2847.000000, 65.781490
2846.000000, 65.252334
2845.000000, 64.728718
2844.000000, 64.224642
2843.000000, 63.681500
2842.000000, 63.182933
2841.000000, 62.650154
2840.000000, 62.077110
2839.000000, 61.452564
2838.000000, 60.800253
2837.000000, 60.043628
2836.000000, 59.266164
2835.000000, 58.476857
2834.000000, 57.646995
2833.000000, 56.753112
2832.000000, 55.878704
2831.000000, 54.986319
2830.000000, 54.211859
2829.000000, 53.494944
2828.000000, 52.837494
2827.000000, 52.197265
2826.000000, 51.563369
2825.000000, 50.904218
2824.000000, 50.223234
2823.000000, 49.502965
2822.000000, 48.773304
2821.000000, 47.920912
2820.000000, 47.019511
2819.000000, 46.041087
2818.000000, 45.061193
2817.000000, 44.118476
2816.000000, 43.174974
2815.000000, 42.278003
2814.000000, 41.402375
2813.000000, 40.496017
2812.000000, 39.763238
2811.000000, 39.144041
2810.000000, 38.522669
2809.000000, 37.899064
2808.000000, 37.262305
2807.000000, 36.487530
2806.000000, 35.656278
2805.000000, 34.757976
2804.000000, 33.797852
2803.000000, 32.818354
2802.000000, 31.798634
2801.000000, 30.776162
2800.000000, 29.724946
2799.000000, 28.808351
2798.000000, 28.033071
2797.000000, 27.342063
2796.000000, 26.737256
2795.000000, 26.215148
2794.000000, 25.763845
2793.000000, 25.290346
2792.000000, 24.767459
2791.000000, 24.220475
2790.000000, 23.633727
2789.000000, 23.033642
2788.000000, 22.409924
2787.000000, 21.729151
2786.000000, 21.057775
2785.000000, 20.402764
2784.000000, 19.734655
2783.000000, 19.079248
2782.000000, 18.487466
2781.000000, 17.898913
2780.000000, 17.321220
2779.000000, 16.734184
2778.000000, 16.243276
2777.000000, 15.781503
2776.000000, 15.355867
2775.000000, 14.954497
2774.000000, 14.578415
2773.000000, 14.232223
2772.000000, 13.889640
2771.000000, 13.543951
2770.000000, 13.158068
2769.000000, 12.733342
2768.000000, 12.313383
2767.000000, 11.929532
2766.000000, 11.542583
2765.000000, 11.161509
2764.000000, 10.780001
2763.000000, 10.395568
2762.000000, 10.022152
2761.000000, 9.606355
2760.000000, 9.216187
2759.000000, 8.823827
2758.000000, 8.452729
2757.000000, 8.121127
2756.000000, 7.815273
2755.000000, 7.534744
2754.000000, 7.250001
2753.000000, 6.962202
2752.000000, 6.684462
2751.000000, 6.430416
2750.000000, 6.220437
2749.000000, 6.062554
2748.000000, 5.932252
2747.000000, 5.826256
2746.000000, 5.720570
2745.000000, 5.596474
2744.000000, 5.476362
2743.000000, 5.369959
2742.000000, 5.255568
2741.000000, 5.077795
2740.000000, 4.806520
2739.000000, 4.484078
2738.000000, 4.185267
2737.000000, 3.961146
2736.000000, 3.767333
2735.000000, 3.624161
2734.000000, 3.500382
2733.000000, 3.390940
2732.000000, 3.301277
2731.000000, 3.271393
2730.000000, 3.314080
2729.000000, 3.406172
2728.000000, 3.514159
2727.000000, 3.614943
2726.000000, 3.630321
2725.000000, 3.543415
2724.000000, 3.374062
2723.000000, 3.172532
2722.000000, 3.043333
2721.000000, 3.017924
2720.000000, 3.048660
2719.000000, 3.104981
2718.000000, 3.143414
2717.000000, 3.184557
2716.000000, 3.248729
2715.000000, 3.303856
2714.000000, 3.374641
2713.000000, 3.510663
2712.000000, 3.699540
2711.000000, 3.959783
2710.000000, 4.259482
2709.000000, 4.574105
2708.000000, 4.902895
2707.000000, 5.287338
2706.000000, 5.731089
2705.000000, 6.256900
2704.000000, 6.820256
2703.000000, 7.371140
2702.000000, 7.899148
2701.000000, 8.479739
2700.000000, 9.195495
2699.000000, 10.127377
2698.000000, 11.371700
2697.000000, 13.019949
2696.000000, 15.037885
2695.000000, 17.316975
2694.000000, 19.771198
2693.000000, 22.370502
2692.000000, 25.059046
2691.000000, 27.793126
2690.000000, 30.650237
2689.000000, 33.643271
2688.000000, 36.534138
2687.000000, 39.191573
2686.000000, 41.692040
2685.000000, 43.939075
2684.000000, 45.996136
2683.000000, 48.098044
2682.000000, 50.284046
2681.000000, 52.506196
2680.000000, 54.221316
2679.000000, 55.872545
2678.000000, 58.101522
2677.000000, 60.074239
2676.000000, 61.633295
2675.000000, 62.964656
2674.000000, 64.302930
2673.000000, 65.795945
2672.000000, 67.360519
2671.000000, 68.871215
2670.000000, 70.377874
2669.000000, 71.819810
2668.000000, 73.118591
2667.000000, 74.382471
2666.000000, 75.563024
2665.000000, 76.582183
2664.000000, 77.375815
2663.000000, 77.964859
2662.000000, 78.476273
2661.000000, 78.962598
2660.000000, 79.396297
2659.000000, 79.720997
2658.000000, 79.964278
2657.000000, 80.186400
2656.000000, 80.399301
2655.000000, 80.611918
2654.000000, 80.861473
2653.000000, 81.087911
2652.000000, 81.300575
2651.000000, 81.502288
2650.000000, 81.682647
2649.000000, 81.855802
2648.000000, 82.023702
2647.000000, 82.177608
2646.000000, 82.323380
2645.000000, 82.480005
2644.000000, 82.630821
2643.000000, 82.770142
2642.000000, 82.910061
2641.000000, 83.056241
2640.000000, 83.175266
2639.000000, 83.294260
2638.000000, 83.381170
2637.000000, 83.480567
2636.000000, 83.598957
2635.000000, 83.680932
2634.000000, 83.752860
2633.000000, 83.818492
2632.000000, 83.856212
2631.000000, 83.897153
2630.000000, 83.959605
2629.000000, 84.064708
2628.000000, 84.183708
2627.000000, 84.318855
2626.000000, 84.386111
2625.000000, 84.465501
2624.000000, 84.527444
2623.000000, 84.590480
2622.000000, 84.648172
2621.000000, 84.700882
2620.000000, 84.768949
2619.000000, 84.812127
2618.000000, 84.825196
2617.000000, 84.849243
2616.000000, 84.894779
2615.000000, 84.924171
2614.000000, 85.013814
2613.000000, 85.092263
2612.000000, 85.133809
2611.000000, 85.159926
2610.000000, 85.195695
2609.000000, 85.193140
2608.000000, 85.246505
2607.000000, 85.299125
2606.000000, 85.339932
2605.000000, 85.389751
2604.000000, 85.454347
2603.000000, 85.512661
2602.000000, 85.543642
2601.000000, 85.584551
2600.000000, 85.653415
2599.000000, 85.696629
2598.000000, 85.749135
2597.000000, 85.803996
2596.000000, 85.843164
2595.000000, 85.903722
2594.000000, 85.937966
2593.000000, 85.968695
2592.000000, 86.027326
2591.000000, 86.070148
2590.000000, 86.111996
2589.000000, 86.151722
2588.000000, 86.197288
2587.000000, 86.229756
2586.000000, 86.277020
2585.000000, 86.290013
2584.000000, 86.353145
2583.000000, 86.427888
2582.000000, 86.481992
2581.000000, 86.525340
2580.000000, 86.571902
2579.000000, 86.590253
2578.000000, 86.649209
2577.000000, 86.698795
2576.000000, 86.766344
2575.000000, 86.820537
2574.000000, 86.873058
2573.000000, 86.928736
2572.000000, 86.980894
2571.000000, 87.048920
2570.000000, 87.119880
2569.000000, 87.198231
2568.000000, 87.261146
2567.000000, 87.297489
2566.000000, 87.348598
2565.000000, 87.403890
2564.000000, 87.501066
2563.000000, 87.570780
2562.000000, 87.612201
2561.000000, 87.664690
2560.000000, 87.723836
2559.000000, 87.825306
2558.000000, 87.885122
2557.000000, 87.933787
2556.000000, 88.000747
2555.000000, 88.051185
2554.000000, 88.102724
2553.000000, 88.156011
2552.000000, 88.261301
2551.000000, 88.304765
2550.000000, 88.328054
2549.000000, 88.362785
2548.000000, 88.430364
2547.000000, 88.486245
2546.000000, 88.569774
2545.000000, 88.629048
2544.000000, 88.698857
2543.000000, 88.773638
2542.000000, 88.817665
2541.000000, 88.888093
2540.000000, 88.949450
2539.000000, 89.005469
2538.000000, 89.034390
2537.000000, 89.100186
2536.000000, 89.194162
2535.000000, 89.219385
2534.000000, 89.301200
2533.000000, 89.352180
2532.000000, 89.431259
2531.000000, 89.488990
2530.000000, 89.552701
2529.000000, 89.600294
2528.000000, 89.657843
2527.000000, 89.729714
2526.000000, 89.767698
2525.000000, 89.840977
2524.000000, 89.884618
2523.000000, 89.955685
2522.000000, 89.986523
2521.000000, 90.032873
2520.000000, 90.087080
2519.000000, 90.134081
2518.000000, 90.190219
2517.000000, 90.225269
2516.000000, 90.277866
2515.000000, 90.324248
2514.000000, 90.345453
2513.000000, 90.372989
2512.000000, 90.443779
2511.000000, 90.499292
2510.000000, 90.555626
2509.000000, 90.613388
2508.000000, 90.645405
2507.000000, 90.689420
2506.000000, 90.730630
2505.000000, 90.785010
2504.000000, 90.831044
2503.000000, 90.865865
2502.000000, 90.915692
2501.000000, 90.974839
2500.000000, 90.996771
2499.000000, 91.025259
2498.000000, 91.071794
2497.000000, 91.112570
2496.000000, 91.142476
2495.000000, 91.178743
2494.000000, 91.214060
2493.000000, 91.245248
2492.000000, 91.280333
2491.000000, 91.307014
2490.000000, 91.349289
2489.000000, 91.373148
2488.000000, 91.402800
2487.000000, 91.465434
2486.000000, 91.506444
2485.000000, 91.514004
2484.000000, 91.523333
2483.000000, 91.551045
2482.000000, 91.581467
2481.000000, 91.593845
2480.000000, 91.607601
2479.000000, 91.656588
2478.000000, 91.709592
2477.000000, 91.708661
2476.000000, 91.731382
2475.000000, 91.753178
2474.000000, 91.783516
2473.000000, 91.799165
2472.000000, 91.825039
2471.000000, 91.843207
2470.000000, 91.864625
2469.000000, 91.889730
2468.000000, 91.895386
2467.000000, 91.916131
2466.000000, 91.965326
2465.000000, 91.992750
2464.000000, 92.013846
2463.000000, 92.031739
2462.000000, 92.030899
2461.000000, 92.055257
2460.000000, 92.066106
2459.000000, 92.073746
2458.000000, 92.087129
2457.000000, 92.105913
2456.000000, 92.136797
2455.000000, 92.155542
2454.000000, 92.178078
2453.000000, 92.199813
2452.000000, 92.221720
2451.000000, 92.231064
2450.000000, 92.251210
2449.000000, 92.268795
2448.000000, 92.294966
2447.000000, 92.316155
2446.000000, 92.329668
2445.000000, 92.334441
2444.000000, 92.338075
2443.000000, 92.350556
2442.000000, 92.370424
2441.000000, 92.392588
2440.000000, 92.407507
2439.000000, 92.430966
2438.000000, 92.455111
2437.000000, 92.471382
2436.000000, 92.485287
2435.000000, 92.509202
2434.000000, 92.525869
2433.000000, 92.537191
2432.000000, 92.567929
2431.000000, 92.583491
2430.000000, 92.599036
2429.000000, 92.621159
2428.000000, 92.633517
2427.000000, 92.645090
2426.000000, 92.664516
2425.000000, 92.688646
2424.000000, 92.707637
2423.000000, 92.722720
2422.000000, 92.735510
2421.000000, 92.758348
2420.000000, 92.779646
2419.000000, 92.801323
2418.000000, 92.820855
2417.000000, 92.829039
2416.000000, 92.842099
2415.000000, 92.862768
2414.000000, 92.881403
2413.000000, 92.896999
2412.000000, 92.906184
2411.000000, 92.913752
2410.000000, 92.928144
2409.000000, 92.946713
2408.000000, 92.962973
2407.000000, 92.973604
2406.000000, 92.989454
2405.000000, 92.993655
2404.000000, 93.009850
2403.000000, 93.036231
2402.000000, 93.049280
2401.000000, 93.057302
2400.000000, 93.074100
2399.000000, 93.092233
2398.000000, 93.096847
2397.000000, 93.105702
2396.000000, 93.106197
2395.000000, 93.120542
2394.000000, 93.142451
2393.000000, 93.145230
2392.000000, 93.141568
2391.000000, 93.156914
2390.000000, 93.172119
2389.000000, 93.174291
2388.000000, 93.178583
2387.000000, 93.187620
2386.000000, 93.186906
2385.000000, 93.197959
2384.000000, 93.194279
2383.000000, 93.187466
2382.000000, 93.195867
2381.000000, 93.208251
2380.000000, 93.198687
2379.000000, 93.200965
2378.000000, 93.208942
2377.000000, 93.194430
2376.000000, 93.198698
2375.000000, 93.207928
2374.000000, 93.213067
2373.000000, 93.216753
2372.000000, 93.215741
2371.000000, 93.209283
2370.000000, 93.202755
2369.000000, 93.201981
2368.000000, 93.197002
2367.000000, 93.186562
2366.000000, 93.195577
2365.000000, 93.204214
2364.000000, 93.199691
2363.000000, 93.193780
2362.000000, 93.195883
2361.000000, 93.194143
2360.000000, 93.176537
2359.000000, 93.186067
2358.000000, 93.175764
2357.000000, 93.166025
2356.000000, 93.179582
2355.000000, 93.170164
2354.000000, 93.167266
2353.000000, 93.161988
2352.000000, 93.143925
2351.000000, 93.129018
2350.000000, 93.131760
2349.000000, 93.127115
2348.000000, 93.109297
2347.000000, 93.102399
2346.000000, 93.110299
2345.000000, 93.125038
2344.000000, 93.099844
2343.000000, 93.083343
2342.000000, 93.084489
2341.000000, 93.081292
2340.000000, 93.058378
2339.000000, 93.064968
2338.000000, 93.070998
2337.000000, 93.047902
2336.000000, 93.035835
2335.000000, 93.020942
2334.000000, 93.009100
2333.000000, 92.985545
2332.000000, 92.970816
2331.000000, 92.959836
2330.000000, 92.942743
2329.000000, 92.933823
2328.000000, 92.934987
2327.000000, 92.920865
2326.000000, 92.902302
2325.000000, 92.874959
2324.000000, 92.892835
2323.000000, 92.838517
2322.000000, 92.836788
2321.000000, 92.810343
2320.000000, 92.794924
2319.000000, 92.768595
2318.000000, 92.739779
2317.000000, 92.742214
2316.000000, 92.717626
2315.000000, 92.705083
2314.000000, 92.672832
2313.000000, 92.662189
2312.000000, 92.611258
2311.000000, 92.592436
2310.000000, 92.564386
2309.000000, 92.537467
2308.000000, 92.509492
2307.000000, 92.471077
2306.000000, 92.448187
2305.000000, 92.412648
2304.000000, 92.376899
2303.000000, 92.360691
2302.000000, 92.320835
2301.000000, 92.265744
2300.000000, 92.242037
2299.000000, 92.212017
2298.000000, 92.167212
2297.000000, 92.115721
2296.000000, 92.084059
2295.000000, 92.043340
2294.000000, 92.002287
2293.000000, 91.948850
2292.000000, 91.906150
2291.000000, 91.861586
2290.000000, 91.806883
2289.000000, 91.747752
2288.000000, 91.701756
2287.000000, 91.655855
2286.000000, 91.592696
2285.000000, 91.535898
2284.000000, 91.494801
2283.000000, 91.432394
2282.000000, 91.376763
2281.000000, 91.322376
2280.000000, 91.243850
2279.000000, 91.198409
2278.000000, 91.132171
2277.000000, 91.062828
2276.000000, 91.005429
2275.000000, 90.914407
2274.000000, 90.866127
2273.000000, 90.812613
2272.000000, 90.748901
2271.000000, 90.675582
2270.000000, 90.616407
2269.000000, 90.536371
2268.000000, 90.452316
2267.000000, 90.397029
2266.000000, 90.328206
2265.000000, 90.246804
2264.000000, 90.174637
2263.000000, 90.105752
2262.000000, 90.023313
2261.000000, 89.957377
2260.000000, 89.880449
2259.000000, 89.814429
2258.000000, 89.740809
2257.000000, 89.676670
2256.000000, 89.616322
2255.000000, 89.556534
2254.000000, 89.495314
2253.000000, 89.442772
2252.000000, 89.408043
2251.000000, 89.355611
2250.000000, 89.307500
2249.000000, 89.244482
2248.000000, 89.216879
2247.000000, 89.181712
2246.000000, 89.137345
2245.000000, 89.123699
2244.000000, 89.096759
2243.000000, 89.069708
2242.000000, 89.051482
2241.000000, 89.033129
2240.000000, 89.024451
2239.000000, 88.997579
2238.000000, 88.964113
2237.000000, 88.938003
2236.000000, 88.921658
2235.000000, 88.907299
2234.000000, 88.874194
2233.000000, 88.838811
2232.000000, 88.793528
2231.000000, 88.750269
2230.000000, 88.690883
2229.000000, 88.655534
2228.000000, 88.581725
2227.000000, 88.514161
2226.000000, 88.435557
2225.000000, 88.371908
2224.000000, 88.284042
2223.000000, 88.184401
2222.000000, 88.084198
2221.000000, 87.987355
2220.000000, 87.886507
2219.000000, 87.792071
2218.000000, 87.696220
2217.000000, 87.597831
2216.000000, 87.496003
2215.000000, 87.400666
2214.000000, 87.324930
2213.000000, 87.264220
2212.000000, 87.233348
2211.000000, 87.221265
2210.000000, 87.232050
2209.000000, 87.280835
2208.000000, 87.338727
2207.000000, 87.441306
2206.000000, 87.571240
2205.000000, 87.720197
2204.000000, 87.917893
2203.000000, 88.134426
2202.000000, 88.389875
2201.000000, 88.657600
2200.000000, 88.930005
2199.000000, 89.216189
2198.000000, 89.511773
2197.000000, 89.799694
2196.000000, 90.077014
2195.000000, 90.344694
2194.000000, 90.601812
2193.000000, 90.840512
2192.000000, 91.063490
2191.000000, 91.260834
2190.000000, 91.421124
2189.000000, 91.581434
2188.000000, 91.741404
2187.000000, 91.874624
2186.000000, 91.973600
2185.000000, 92.069902
2184.000000, 92.157303
2183.000000, 92.235335
2182.000000, 92.309967
2181.000000, 92.393729
2180.000000, 92.468404
2179.000000, 92.511854
2178.000000, 92.560781
2177.000000, 92.598858
2176.000000, 92.638690
2175.000000, 92.689828
2174.000000, 92.737503
2173.000000, 92.766384
2172.000000, 92.797323
2171.000000, 92.826027
2170.000000, 92.855638
2169.000000, 92.887997
2168.000000, 92.920973
2167.000000, 92.949156
2166.000000, 92.963757
2165.000000, 92.981289
2164.000000, 92.995573
2163.000000, 93.024137
2162.000000, 93.049346
2161.000000, 93.065959
2160.000000, 93.092065
2159.000000, 93.101877
2158.000000, 93.102567
2157.000000, 93.131314
2156.000000, 93.153840
2155.000000, 93.174444
2154.000000, 93.198089
2153.000000, 93.211849
2152.000000, 93.234806
2151.000000, 93.255597
2150.000000, 93.275849
2149.000000, 93.300193
2148.000000, 93.321677
2147.000000, 93.330977
2146.000000, 93.337905
2145.000000, 93.355286
2144.000000, 93.373862
2143.000000, 93.403575
2142.000000, 93.408588
2141.000000, 93.421509
2140.000000, 93.444212
2139.000000, 93.455647
2138.000000, 93.465102
2137.000000, 93.502980
2136.000000, 93.506480
2135.000000, 93.496089
2134.000000, 93.506203
2133.000000, 93.517863
2132.000000, 93.533672
2131.000000, 93.549868
2130.000000, 93.540635
2129.000000, 93.544961
2128.000000, 93.561247
2127.000000, 93.552934
2126.000000, 93.552611
2125.000000, 93.567126
2124.000000, 93.585192
2123.000000, 93.597367
2122.000000, 93.596388
2121.000000, 93.583904
2120.000000, 93.595186
2119.000000, 93.598831
2118.000000, 93.598570
2117.000000, 93.603602
2116.000000, 93.626514
2115.000000, 93.614371
2114.000000, 93.603613
2113.000000, 93.620064
2112.000000, 93.617729
2111.000000, 93.624212
2110.000000, 93.642601
2109.000000, 93.628002
2108.000000, 93.631084
2107.000000, 93.634515
2106.000000, 93.643975
2105.000000, 93.634419
2104.000000, 93.630921
2103.000000, 93.642028
2102.000000, 93.636911
2101.000000, 93.627173
2100.000000, 93.638412
2099.000000, 93.652245
2098.000000, 93.652854
2097.000000, 93.658179
2096.000000, 93.644124
2095.000000, 93.659680
2094.000000, 93.665689
2093.000000, 93.674739
2092.000000, 93.677598
2091.000000, 93.669699
2090.000000, 93.684525
2089.000000, 93.676780
2088.000000, 93.649265
2087.000000, 93.658884
2086.000000, 93.677320
2085.000000, 93.674348
2084.000000, 93.657278
2083.000000, 93.647015
2082.000000, 93.666931
2081.000000, 93.663181
2080.000000, 93.660557
2079.000000, 93.675015
2078.000000, 93.667272
2077.000000, 93.671068
2076.000000, 93.672599
2075.000000, 93.670515
2074.000000, 93.668531
2073.000000, 93.674818
2072.000000, 93.676651
2071.000000, 93.643961
2070.000000, 93.651073
2069.000000, 93.650418
2068.000000, 93.658414
2067.000000, 93.659504
2066.000000, 93.641768
2065.000000, 93.638611
2064.000000, 93.630752
2063.000000, 93.629911
2062.000000, 93.638027
2061.000000, 93.631810
2060.000000, 93.631340
2059.000000, 93.647338
2058.000000, 93.655182
2057.000000, 93.666614
2056.000000, 93.636803
2055.000000, 93.635388
2054.000000, 93.654787
2053.000000, 93.655896
2052.000000, 93.653611
2051.000000, 93.658932
2050.000000, 93.652485
2049.000000, 93.652840
2048.000000, 93.691609
2047.000000, 93.668669
2046.000000, 93.679385
2045.000000, 93.677474
2044.000000, 93.673254
2043.000000, 93.676875
2042.000000, 93.678360
2041.000000, 93.714522
2040.000000, 93.705353
2039.000000, 93.690033
2038.000000, 93.679782
2037.000000, 93.700116
2036.000000, 93.706059
2035.000000, 93.724442
2034.000000, 93.711543
2033.000000, 93.715345
2032.000000, 93.706380
2031.000000, 93.698340
2030.000000, 93.743683
2029.000000, 93.740573
2028.000000, 93.751848
2027.000000, 93.741950
2026.000000, 93.724999
2025.000000, 93.728888
2024.000000, 93.748950
2023.000000, 93.764482
2022.000000, 93.741442
2021.000000, 93.756479
2020.000000, 93.738605
2019.000000, 93.763031
2018.000000, 93.775098
2017.000000, 93.779696
2016.000000, 93.775586
2015.000000, 93.771559
2014.000000, 93.781512
2013.000000, 93.783055
2012.000000, 93.791031
2011.000000, 93.774355
2010.000000, 93.784888
2009.000000, 93.787174
2008.000000, 93.768315
2007.000000, 93.792495
2006.000000, 93.808865
2005.000000, 93.798296
2004.000000, 93.786515
2003.000000, 93.772651
2002.000000, 93.779565
2001.000000, 93.797756
2000.000000, 93.805903
1999.000000, 93.811187
1998.000000, 93.805937
1997.000000, 93.801339
1996.000000, 93.814795
1995.000000, 93.816989
1994.000000, 93.803408
1993.000000, 93.787690
1992.000000, 93.791437
1991.000000, 93.781677
1990.000000, 93.778346
1989.000000, 93.764142
1988.000000, 93.784666
1987.000000, 93.817584
1986.000000, 93.822698
1985.000000, 93.819411
1984.000000, 93.828813
1983.000000, 93.817865
1982.000000, 93.828718
1981.000000, 93.807338
1980.000000, 93.800500
1979.000000, 93.803535
1978.000000, 93.799181
1977.000000, 93.807078
1976.000000, 93.798391
1975.000000, 93.808406
1974.000000, 93.806001
1973.000000, 93.794920
1972.000000, 93.794862
1971.000000, 93.798094
1970.000000, 93.791422
1969.000000, 93.805969
1968.000000, 93.794735
1967.000000, 93.783791
1966.000000, 93.790101
1965.000000, 93.796961
1964.000000, 93.817568
1963.000000, 93.815341
1962.000000, 93.791867
1961.000000, 93.780017
1960.000000, 93.784190
1959.000000, 93.800654
1958.000000, 93.792337
1957.000000, 93.769336
1956.000000, 93.782639
1955.000000, 93.811609
1954.000000, 93.795863
1953.000000, 93.792842
1952.000000, 93.790047
1951.000000, 93.801087
1950.000000, 93.781759
1949.000000, 93.783841
1948.000000, 93.838229
1947.000000, 93.803188
1946.000000, 93.783469
1945.000000, 93.774956
1944.000000, 93.817083
1943.000000, 93.814424
1942.000000, 93.796040
1941.000000, 93.811149
1940.000000, 93.818876
1939.000000, 93.816669
1938.000000, 93.790936
1937.000000, 93.775743
1936.000000, 93.768959
1935.000000, 93.778003
1934.000000, 93.788582
1933.000000, 93.793986
1932.000000, 93.799623
1931.000000, 93.803115
1930.000000, 93.795798
1929.000000, 93.795901
1928.000000, 93.790822
1927.000000, 93.784485
1926.000000, 93.783706
1925.000000, 93.781050
1924.000000, 93.781329
1923.000000, 93.792009
1922.000000, 93.783115
1921.000000, 93.772090
1920.000000, 93.755157
1919.000000, 93.738791
1918.000000, 93.750138
1917.000000, 93.750387
1916.000000, 93.780601
1915.000000, 93.830668
1914.000000, 93.846719
1913.000000, 93.835628
1912.000000, 93.814412
1911.000000, 93.784981
1910.000000, 93.725861
1909.000000, 93.726238
1908.000000, 93.798795
1907.000000, 93.831371
1906.000000, 93.830820
1905.000000, 93.797899
1904.000000, 93.773731
1903.000000, 93.749344
1902.000000, 93.752551
1901.000000, 93.790185
1900.000000, 93.838034
1899.000000, 93.833790
1898.000000, 93.792083
1897.000000, 93.918895
1896.000000, 93.899766
1895.000000, 93.783366
1894.000000, 93.801163
1893.000000, 93.832810
1892.000000, 93.867290
1891.000000, 93.818341
1890.000000, 93.764859
1889.000000, 93.762515
1888.000000, 93.738084
1887.000000, 93.744279
1886.000000, 93.750622
1885.000000, 93.764848
1884.000000, 93.821788
1883.000000, 93.846910
1882.000000, 93.818232
1881.000000, 93.801394
1880.000000, 93.824285
1879.000000, 93.814022
1878.000000, 93.814813
1877.000000, 93.823158
1876.000000, 93.820295
1875.000000, 93.800635
1874.000000, 93.778673
1873.000000, 93.781015
1872.000000, 93.749038
1871.000000, 93.740439
1870.000000, 93.774118
1869.000000, 93.795122
1868.000000, 93.755530
1867.000000, 93.751230
1866.000000, 93.796980
1865.000000, 93.822657
1864.000000, 93.832988
1863.000000, 93.842665
1862.000000, 93.842810
1861.000000, 93.845347
1860.000000, 93.845876
1859.000000, 93.849030
1858.000000, 93.843297
1857.000000, 93.820815
1856.000000, 93.752102
1855.000000, 93.802362
1854.000000, 93.807470
1853.000000, 93.859807
1852.000000, 93.834317
1851.000000, 93.808499
1850.000000, 93.829054
1849.000000, 93.807044
1848.000000, 93.871265
1847.000000, 93.854360
1846.000000, 93.782880
1845.000000, 93.866915
1844.000000, 93.833351
1843.000000, 93.852426
1842.000000, 93.926442
1841.000000, 93.888605
1840.000000, 93.818622
1839.000000, 93.799695
1838.000000, 93.790655
1837.000000, 93.840975
1836.000000, 93.868617
1835.000000, 93.860806
1834.000000, 93.803669
1833.000000, 93.842015
1832.000000, 93.856959
1831.000000, 93.837635
1830.000000, 93.825871
1829.000000, 93.845808
1828.000000, 93.821579
1827.000000, 93.807268
1826.000000, 93.810247
1825.000000, 93.809222
1824.000000, 93.816875
1823.000000, 93.793419
1822.000000, 93.843001
1821.000000, 93.872661
1820.000000, 93.837304
1819.000000, 93.774511
1818.000000, 93.791280
1817.000000, 93.790667
1816.000000, 93.845873
1815.000000, 93.853534
1814.000000, 93.873787
1813.000000, 93.878766
1812.000000, 93.796298
1811.000000, 93.851469
1810.000000, 93.837999
1809.000000, 93.834386
1808.000000, 93.824806
1807.000000, 93.798311
1806.000000, 93.848278
1805.000000, 93.826093
1804.000000, 93.833552
1803.000000, 93.845708
1802.000000, 93.846952
1801.000000, 93.870818
1800.000000, 93.840630
1799.000000, 93.834588
1798.000000, 93.865985
1797.000000, 93.832683
1796.000000, 93.820311
1795.000000, 93.835755
1794.000000, 93.817833
1793.000000, 93.827018
1792.000000, 93.840613
1791.000000, 93.834866
1790.000000, 93.849108
1789.000000, 93.809846
1788.000000, 93.825247
1787.000000, 93.820084
1786.000000, 93.832640
1785.000000, 93.826690
1784.000000, 93.842720
1783.000000, 93.824594
1782.000000, 93.828927
1781.000000, 93.828738
1780.000000, 93.835333
1779.000000, 93.822056
1778.000000, 93.834537
1777.000000, 93.820762
1776.000000, 93.853982
1775.000000, 93.829833
1774.000000, 93.831115
1773.000000, 93.833690
1772.000000, 93.831793
1771.000000, 93.822188
1770.000000, 93.812969
1769.000000, 93.825582
1768.000000, 93.837979
1767.000000, 93.845136
1766.000000, 93.839705
1765.000000, 93.857989
1764.000000, 93.824063
1763.000000, 93.842741
1762.000000, 93.835502
1761.000000, 93.824875
1760.000000, 93.843621
1759.000000, 93.846938
1758.000000, 93.860442
1757.000000, 93.851445
1756.000000, 93.835132
1755.000000, 93.832794
1754.000000, 93.842902
1753.000000, 93.835788
1752.000000, 93.826240
1751.000000, 93.826244
1750.000000, 93.834623
1749.000000, 93.851560
1748.000000, 93.837677
1747.000000, 93.842376
1746.000000, 93.841934
1745.000000, 93.849003
1744.000000, 93.846392
1743.000000, 93.852993
1742.000000, 93.855622
1741.000000, 93.852816
1740.000000, 93.837197
1739.000000, 93.836867
1738.000000, 93.835855
1737.000000, 93.833699
1736.000000, 93.817874
1735.000000, 93.822535
1734.000000, 93.831116
1733.000000, 93.840718
1732.000000, 93.851951
1731.000000, 93.849490
1730.000000, 93.841067
1729.000000, 93.842737
1728.000000, 93.837532
1727.000000, 93.847436
1726.000000, 93.838751
1725.000000, 93.821184
1724.000000, 93.827434
1723.000000, 93.828129
1722.000000, 93.832482
1721.000000, 93.855133
1720.000000, 93.865190
1719.000000, 93.849794
1718.000000, 93.837071
1717.000000, 93.836718
1716.000000, 93.827859
1715.000000, 93.825994
1714.000000, 93.829448
1713.000000, 93.822157
1712.000000, 93.839560
1711.000000, 93.825368
1710.000000, 93.833796
1709.000000, 93.835976
1708.000000, 93.825065
1707.000000, 93.820354
1706.000000, 93.810051
1705.000000, 93.817120
1704.000000, 93.813041
1703.000000, 93.816614
1702.000000, 93.827275
1701.000000, 93.829593
1700.000000, 93.838402
1699.000000, 93.834137
1698.000000, 93.831099
1697.000000, 93.834762
1696.000000, 93.844973
1695.000000, 93.841308
1694.000000, 93.836126
1693.000000, 93.822468
1692.000000, 93.833399
1691.000000, 93.820420
1690.000000, 93.813141
1689.000000, 93.822212
1688.000000, 93.812214
1687.000000, 93.817618
1686.000000, 93.818007
1685.000000, 93.804946
1684.000000, 93.805306
1683.000000, 93.810056
1682.000000, 93.817930
1681.000000, 93.827909
1680.000000, 93.830419
1679.000000, 93.838955
1678.000000, 93.841209
1677.000000, 93.827124
1676.000000, 93.823190
1675.000000, 93.813383
1674.000000, 93.804104
1673.000000, 93.811100
1672.000000, 93.830106
1671.000000, 93.826110
1670.000000, 93.824855
1669.000000, 93.843710
1668.000000, 93.841572
1667.000000, 93.836418
1666.000000, 93.823602
1665.000000, 93.815221
1664.000000, 93.818034
1663.000000, 93.812540
1662.000000, 93.820980
1661.000000, 93.824422
1660.000000, 93.826569
1659.000000, 93.832045
1658.000000, 93.831332
1657.000000, 93.828587
1656.000000, 93.816460
1655.000000, 93.816793
1654.000000, 93.827845
1653.000000, 93.813788
1652.000000, 93.808821
1651.000000, 93.821132
1650.000000, 93.827076
1649.000000, 93.823826
1648.000000, 93.810648
1647.000000, 93.803726
1646.000000, 93.813631
1645.000000, 93.820854
1644.000000, 93.813205
1643.000000, 93.813823
1642.000000, 93.823400
1641.000000, 93.819500
1640.000000, 93.812897
1639.000000, 93.820721
1638.000000, 93.823149
1637.000000, 93.820186
1636.000000, 93.823949
1635.000000, 93.820374
1634.000000, 93.812065
1633.000000, 93.804727
1632.000000, 93.804485
1631.000000, 93.798186
1630.000000, 93.805042
1629.000000, 93.811870
1628.000000, 93.809835
1627.000000, 93.812452
1626.000000, 93.826667
1625.000000, 93.809542
1624.000000, 93.806862
1623.000000, 93.815607
1622.000000, 93.819931
1621.000000, 93.814266
1620.000000, 93.801606
1619.000000, 93.791358
1618.000000, 93.792611
1617.000000, 93.801842
1616.000000, 93.823818
1615.000000, 93.820933
1614.000000, 93.825381
1613.000000, 93.823559
1612.000000, 93.832410
1611.000000, 93.838122
1610.000000, 93.832452
1609.000000, 93.830064
1608.000000, 93.826688
1607.000000, 93.814084
1606.000000, 93.810318
1605.000000, 93.790741
1604.000000, 93.788760
1603.000000, 93.792133
1602.000000, 93.804284
1601.000000, 93.812049
1600.000000, 93.793022
1599.000000, 93.793585
1598.000000, 93.790133
1597.000000, 93.792151
1596.000000, 93.799987
1595.000000, 93.828954
1594.000000, 93.842314
1593.000000, 93.813236
1592.000000, 93.811895
1591.000000, 93.808430
1590.000000, 93.809282
1589.000000, 93.803020
1588.000000, 93.804279
1587.000000, 93.806057
1586.000000, 93.799479
1585.000000, 93.802632
1584.000000, 93.783375
1583.000000, 93.780512
1582.000000, 93.769439
1581.000000, 93.782761
1580.000000, 93.793663
1579.000000, 93.789544
1578.000000, 93.792278
1577.000000, 93.792603
1576.000000, 93.802984
1575.000000, 93.809465
1574.000000, 93.802256
1573.000000, 93.795678
1572.000000, 93.784470
1571.000000, 93.774666
1570.000000, 93.782735
1569.000000, 93.793864
1568.000000, 93.787112
1567.000000, 93.798169
1566.000000, 93.794406
1565.000000, 93.798669
1564.000000, 93.791430
1563.000000, 93.807784
1562.000000, 93.795302
1561.000000, 93.802906
1560.000000, 93.809849
1559.000000, 93.808072
1558.000000, 93.796044
1557.000000, 93.772128
1556.000000, 93.784738
1555.000000, 93.794942
1554.000000, 93.803314
1553.000000, 93.792998
1552.000000, 93.789292
1551.000000, 93.775466
1550.000000, 93.790716
1549.000000, 93.774418
1548.000000, 93.799624
1547.000000, 93.808359
1546.000000, 93.787303
1545.000000, 93.778273
1544.000000, 93.768430
1543.000000, 93.768588
1542.000000, 93.786079
1541.000000, 93.788352
1540.000000, 93.781449
1539.000000, 93.780081
1538.000000, 93.801787
1537.000000, 93.783771
1536.000000, 93.779056
1535.000000, 93.791562
1534.000000, 93.799292
1533.000000, 93.794874
1532.000000, 93.803633
1531.000000, 93.796324
1530.000000, 93.794541
1529.000000, 93.775107
1528.000000, 93.771472
1527.000000, 93.739618
1526.000000, 93.754350
1525.000000, 93.768261
1524.000000, 93.772802
1523.000000, 93.762986
1522.000000, 93.768026
1521.000000, 93.773828
1520.000000, 93.797675
1519.000000, 93.785987
1518.000000, 93.787942
1517.000000, 93.793538
1516.000000, 93.788178
1515.000000, 93.777584
1514.000000, 93.775973
1513.000000, 93.790111
1512.000000, 93.772552
1511.000000, 93.769441
1510.000000, 93.762834
1509.000000, 93.762661
1508.000000, 93.753496
1507.000000, 93.771300
1506.000000, 93.755926
1505.000000, 93.752024
1504.000000, 93.758023
1503.000000, 93.754246
1502.000000, 93.763416
1501.000000, 93.768800
1500.000000, 93.768281
1499.000000, 93.749668
1498.000000, 93.760214
1497.000000, 93.754891
1496.000000, 93.755547
1495.000000, 93.737419
1494.000000, 93.769094
1493.000000, 93.786649
1492.000000, 93.782162
1491.000000, 93.771004
1490.000000, 93.759303
1489.000000, 93.763956
1488.000000, 93.760624
1487.000000, 93.767421
1486.000000, 93.761540
1485.000000, 93.743027
1484.000000, 93.740154
1483.000000, 93.721633
1482.000000, 93.737086
1481.000000, 93.736362
1480.000000, 93.752011
1479.000000, 93.797134
1478.000000, 93.766655
1477.000000, 93.750345
1476.000000, 93.751910
1475.000000, 93.746079
1474.000000, 93.746961
1473.000000, 93.755084
1472.000000, 93.740523
1471.000000, 93.741182
1470.000000, 93.720457
1469.000000, 93.697748
1468.000000, 93.715987
1467.000000, 93.730813
1466.000000, 93.704189
1465.000000, 93.695223
1464.000000, 93.706272
1463.000000, 93.710578
1462.000000, 93.721290
1461.000000, 93.720669
1460.000000, 93.717035
1459.000000, 93.718094
1458.000000, 93.713309
1457.000000, 93.719944
1456.000000, 93.702939
1455.000000, 93.715673
1454.000000, 93.749503
1453.000000, 93.696493
1452.000000, 93.667296
1451.000000, 93.669104
1450.000000, 93.669466
1449.000000, 93.678949
1448.000000, 93.671624
1447.000000, 93.684420
1446.000000, 93.750292
1445.000000, 93.681188
1444.000000, 93.632311
1443.000000, 93.619980
1442.000000, 93.654720
1441.000000, 93.657525
1440.000000, 93.665075
1439.000000, 93.643138
1438.000000, 93.621986
1437.000000, 93.629323
1436.000000, 93.628216
1435.000000, 93.613070
1434.000000, 93.601148
1433.000000, 93.605324
1432.000000, 93.608007
1431.000000, 93.589253
1430.000000, 93.574618
1429.000000, 93.560152
1428.000000, 93.556372
1427.000000, 93.554451
1426.000000, 93.547394
1425.000000, 93.549600
1424.000000, 93.529103
1423.000000, 93.514210
1422.000000, 93.496896
1421.000000, 93.461614
1420.000000, 93.450498
1419.000000, 93.453044
1418.000000, 93.438001
1417.000000, 93.411810
1416.000000, 93.390740
1415.000000, 93.387154
1414.000000, 93.391087
1413.000000, 93.354101
1412.000000, 93.298662
1411.000000, 93.267120
1410.000000, 93.243866
1409.000000, 93.262941
1408.000000, 93.232975
1407.000000, 93.145728
1406.000000, 93.113965
1405.000000, 93.224362
1404.000000, 93.220233
1403.000000, 93.031115
1402.000000, 92.963322
1401.000000, 92.966834
1400.000000, 92.950947
1399.000000, 92.816035
1398.000000, 92.694917
1397.000000, 92.648383
1396.000000, 92.655929
1395.000000, 92.611783
1394.000000, 92.474532
1393.000000, 92.377733
1392.000000, 92.317628
1391.000000, 92.077396
1390.000000, 91.997027
1389.000000, 92.113962
1388.000000, 92.268928
1387.000000, 92.147492
1386.000000, 91.916066
1385.000000, 91.963566
1384.000000, 91.964385
1383.000000, 91.913239
1382.000000, 91.908550
1381.000000, 91.903899
1380.000000, 91.986110
1379.000000, 92.098339
1378.000000, 92.220828
1377.000000, 92.400485
1376.000000, 92.568619
1375.000000, 92.744843
1374.000000, 92.893980
1373.000000, 93.037859
1372.000000, 93.158512
1371.000000, 93.238144
1370.000000, 93.321624
1369.000000, 93.390039
1368.000000, 93.437778
1367.000000, 93.455060
1366.000000, 93.465794
1365.000000, 93.465509
1364.000000, 93.510676
1363.000000, 93.530100
1362.000000, 93.545315
1361.000000, 93.525369
1360.000000, 93.501191
1359.000000, 93.473345
1358.000000, 93.518542
1357.000000, 93.571263
1356.000000, 93.609151
1355.000000, 93.623064
1354.000000, 93.606109
1353.000000, 93.590491
1352.000000, 93.596053
1351.000000, 93.545863
1350.000000, 93.555201
1349.000000, 93.603574
1348.000000, 93.623670
1347.000000, 93.617418
1346.000000, 93.606758
1345.000000, 93.616707
1344.000000, 93.615965
1343.000000, 93.623845
1342.000000, 93.615957
1341.000000, 93.618775
1340.000000, 93.634820
1339.000000, 93.634969
1338.000000, 93.637775
1337.000000, 93.655024
1336.000000, 93.676734
1335.000000, 93.625987
1334.000000, 93.642166
1333.000000, 93.640325
1332.000000, 93.638769
1331.000000, 93.660821
1330.000000, 93.667932
1329.000000, 93.675889
1328.000000, 93.688781
1327.000000, 93.691255
1326.000000, 93.690469
1325.000000, 93.703410
1324.000000, 93.691402
1323.000000, 93.696274
1322.000000, 93.715202
1321.000000, 93.722623
1320.000000, 93.718108
1319.000000, 93.702774
1318.000000, 93.692486
1317.000000, 93.705126
1316.000000, 93.698830
1315.000000, 93.697752
1314.000000, 93.719464
1313.000000, 93.716452
1312.000000, 93.704556
1311.000000, 93.695950
1310.000000, 93.707123
1309.000000, 93.703216
1308.000000, 93.702104
1307.000000, 93.715697
1306.000000, 93.705148
1305.000000, 93.703083
1304.000000, 93.712462
1303.000000, 93.716876
1302.000000, 93.704616
1301.000000, 93.709260
1300.000000, 93.703775
1299.000000, 93.735705
1298.000000, 93.730572
1297.000000, 93.733351
1296.000000, 93.709749
1295.000000, 93.720723
1294.000000, 93.701113
1293.000000, 93.690229
1292.000000, 93.683324
1291.000000, 93.727835
1290.000000, 93.724443
1289.000000, 93.705245
1288.000000, 93.711984
1287.000000, 93.708007
1286.000000, 93.720996
1285.000000, 93.699773
1284.000000, 93.715825
1283.000000, 93.711176
1282.000000, 93.715827
1281.000000, 93.726415
1280.000000, 93.699453
1279.000000, 93.700742
1278.000000, 93.691018
1277.000000, 93.708264
1276.000000, 93.694824
1275.000000, 93.695035
1274.000000, 93.700093
1273.000000, 93.683359
1272.000000, 93.700250
1271.000000, 93.695975
1270.000000, 93.709967
1269.000000, 93.684323
1268.000000, 93.700583
1267.000000, 93.709166
1266.000000, 93.666379
1265.000000, 93.687960
1264.000000, 93.673858
1263.000000, 93.678225
1262.000000, 93.686406
1261.000000, 93.646462
1260.000000, 93.674953
1259.000000, 93.673280
1258.000000, 93.681389
1257.000000, 93.683822
1256.000000, 93.661819
1255.000000, 93.654767
1254.000000, 93.639155
1253.000000, 93.653867
1252.000000, 93.648557
1251.000000, 93.639303
1250.000000, 93.662472
1249.000000, 93.664547
1248.000000, 93.658462
1247.000000, 93.632386
1246.000000, 93.634995
1245.000000, 93.643290
1244.000000, 93.641379
1243.000000, 93.652087
1242.000000, 93.657297
1241.000000, 93.649926
1240.000000, 93.647111
1239.000000, 93.655981
1238.000000, 93.668743
1237.000000, 93.672650
1236.000000, 93.685646
1235.000000, 93.670330
1234.000000, 93.688517
1233.000000, 93.694380
1232.000000, 93.703215
1231.000000, 93.672807
1230.000000, 93.708870
1229.000000, 93.717074
1228.000000, 93.709675
1227.000000, 93.722989
1226.000000, 93.714327
1225.000000, 93.706916
1224.000000, 93.712838
1223.000000, 93.711648
1222.000000, 93.711229
1221.000000, 93.713660
1220.000000, 93.711539
1219.000000, 93.712533
1218.000000, 93.709393
1217.000000, 93.705157
1216.000000, 93.711129
1215.000000, 93.716010
1214.000000, 93.697560
1213.000000, 93.708862
1212.000000, 93.705434
1211.000000, 93.713692
1210.000000, 93.731104
1209.000000, 93.743590
1208.000000, 93.712370
1207.000000, 93.700343
1206.000000, 93.701283
1205.000000, 93.711167
1204.000000, 93.702537
1203.000000, 93.696867
1202.000000, 93.711552
1201.000000, 93.716853
1200.000000, 93.708343
1199.000000, 93.702460
1198.000000, 93.703526
1197.000000, 93.699307
1196.000000, 93.705913
1195.000000, 93.711768
1194.000000, 93.715175
1193.000000, 93.723008
1192.000000, 93.712685
1191.000000, 93.710907
1190.000000, 93.714709
1189.000000, 93.710931
1188.000000, 93.706367
1187.000000, 93.700959
1186.000000, 93.709728
1185.000000, 93.697034
1184.000000, 93.673813
1183.000000, 93.657029
1182.000000, 93.673501
1181.000000, 93.695960
1180.000000, 93.697887
1179.000000, 93.703669
1178.000000, 93.705700
1177.000000, 93.711442
1176.000000, 93.713631
1175.000000, 93.710394
1174.000000, 93.711079
1173.000000, 93.720204
1172.000000, 93.724413
1171.000000, 93.721925
1170.000000, 93.712412
1169.000000, 93.704631
1168.000000, 93.705364
1167.000000, 93.707582
1166.000000, 93.686992
1165.000000, 93.666877
1164.000000, 93.670854
1163.000000, 93.669424
1162.000000, 93.691154
1161.000000, 93.710247
1160.000000, 93.706501
1159.000000, 93.705212
1158.000000, 93.712891
1157.000000, 93.707102
1156.000000, 93.698444
1155.000000, 93.701830
1154.000000, 93.709105
1153.000000, 93.699733
1152.000000, 93.676615
1151.000000, 93.661394
1150.000000, 93.670399
1149.000000, 93.675482
1148.000000, 93.682857
1147.000000, 93.686214
1146.000000, 93.685994
1145.000000, 93.677414
1144.000000, 93.647270
1143.000000, 93.645170
1142.000000, 93.652630
1141.000000, 93.677142
1140.000000, 93.718755
1139.000000, 93.717592
1138.000000, 93.685609
1137.000000, 93.665943
1136.000000, 93.665474
1135.000000, 93.615781
1134.000000, 93.635515
1133.000000, 93.689694
1132.000000, 93.696371
1131.000000, 93.705271
1130.000000, 93.686290
1129.000000, 93.676233
1128.000000, 93.678983
1127.000000, 93.688711
1126.000000, 93.677514
1125.000000, 93.670066
1124.000000, 93.678641
1123.000000, 93.678359
1122.000000, 93.694793
1121.000000, 93.688889
1120.000000, 93.688415
1119.000000, 93.697930
1118.000000, 93.698949
1117.000000, 93.687616
1116.000000, 93.695791
1115.000000, 93.690781
1114.000000, 93.694699
1113.000000, 93.693985
1112.000000, 93.686060
1111.000000, 93.685459
1110.000000, 93.676878
1109.000000, 93.677605
1108.000000, 93.690160
1107.000000, 93.687176
1106.000000, 93.694187
1105.000000, 93.685913
1104.000000, 93.688820
1103.000000, 93.684505
1102.000000, 93.681528
1101.000000, 93.675215
1100.000000, 93.679793
1099.000000, 93.676790
1098.000000, 93.685767
1097.000000, 93.688272
1096.000000, 93.683060
1095.000000, 93.670169
1094.000000, 93.674891
1093.000000, 93.661615
1092.000000, 93.665324
1091.000000, 93.680866
1090.000000, 93.677475
1089.000000, 93.671061
1088.000000, 93.676856
1087.000000, 93.658531
1086.000000, 93.660278
1085.000000, 93.667858
1084.000000, 93.681938
1083.000000, 93.676259
1082.000000, 93.665612
1081.000000, 93.666506
1080.000000, 93.670470
1079.000000, 93.668247
1078.000000, 93.661560
1077.000000, 93.669510
1076.000000, 93.673826
1075.000000, 93.659805
1074.000000, 93.627320
1073.000000, 93.644474
1072.000000, 93.659304
1071.000000, 93.682063
1070.000000, 93.689128
1069.000000, 93.671654
1068.000000, 93.662809
1067.000000, 93.656461
1066.000000, 93.655283
1065.000000, 93.665764
1064.000000, 93.679353
1063.000000, 93.678996
1062.000000, 93.658857
1061.000000, 93.647222
1060.000000, 93.656424
1059.000000, 93.645594
1058.000000, 93.640565
1057.000000, 93.654761
1056.000000, 93.661662
1055.000000, 93.650232
1054.000000, 93.650063
1053.000000, 93.654451
1052.000000, 93.661749
1051.000000, 93.646003
1050.000000, 93.660655
1049.000000, 93.648798
1048.000000, 93.667804
1047.000000, 93.668171
1046.000000, 93.647817
1045.000000, 93.665121
1044.000000, 93.664775
1043.000000, 93.671004
1042.000000, 93.674224
1041.000000, 93.673996
1040.000000, 93.667696
1039.000000, 93.664094
1038.000000, 93.647026
1037.000000, 93.650345
1036.000000, 93.666243
1035.000000, 93.675868
1034.000000, 93.643435
1033.000000, 93.662854
1032.000000, 93.653893
1031.000000, 93.660047
1030.000000, 93.645541
1029.000000, 93.657018
1028.000000, 93.643962
1027.000000, 93.658564
1026.000000, 93.660921
1025.000000, 93.664400
1024.000000, 93.646670
1023.000000, 93.641819
1022.000000, 93.651820
1021.000000, 93.658630
1020.000000, 93.647307
1019.000000, 93.651377
1018.000000, 93.647668
1017.000000, 93.646285
1016.000000, 93.643380
1015.000000, 93.639369
1014.000000, 93.643336
1013.000000, 93.665362
1012.000000, 93.642006
1011.000000, 93.624132
1010.000000, 93.652519
1009.000000, 93.632484
1008.000000, 93.642632
1007.000000, 93.637473
1006.000000, 93.613668
1005.000000, 93.628104
1004.000000, 93.644028
1003.000000, 93.654300
1002.000000, 93.635956
1001.000000, 93.631286
1000.000000, 93.645828
999.000000, 93.653760
998.000000, 93.635987
997.000000, 93.639157
996.000000, 93.653102
995.000000, 93.638466
994.000000, 93.648351
993.000000, 93.631435
992.000000, 93.675787
991.000000, 93.621844
990.000000, 93.620974
989.000000, 93.636747
988.000000, 93.614313
987.000000, 93.616576
986.000000, 93.648531
985.000000, 93.641124
984.000000, 93.636269
983.000000, 93.659462
982.000000, 93.634568
981.000000, 93.636247
980.000000, 93.648073
979.000000, 93.631584
978.000000, 93.629539
977.000000, 93.626492
976.000000, 93.626658
975.000000, 93.629437
974.000000, 93.631851
973.000000, 93.635123
972.000000, 93.634218
971.000000, 93.635904
970.000000, 93.653253
969.000000, 93.638227
968.000000, 93.645425
967.000000, 93.608872
966.000000, 93.638788
965.000000, 93.622723
964.000000, 93.614136
963.000000, 93.609854
962.000000, 93.617969
961.000000, 93.616563
960.000000, 93.622867
959.000000, 93.634546
958.000000, 93.638930
957.000000, 93.631899
956.000000, 93.637385
955.000000, 93.623282
954.000000, 93.588859
953.000000, 93.614421
952.000000, 93.637042
951.000000, 93.610042
950.000000, 93.605248
949.000000, 93.586309
948.000000, 93.610168
947.000000, 93.615753
946.000000, 93.602194
945.000000, 93.595196
944.000000, 93.577880
943.000000, 93.570869
942.000000, 93.571827
941.000000, 93.571616
940.000000, 93.581599
939.000000, 93.591830
938.000000, 93.587414
937.000000, 93.597827
936.000000, 93.612597
935.000000, 93.620622
934.000000, 93.603465
933.000000, 93.598471
932.000000, 93.607772
931.000000, 93.631864
930.000000, 93.627027
929.000000, 93.629396
928.000000, 93.629242
927.000000, 93.635713
926.000000, 93.605066
925.000000, 93.606127
924.000000, 93.613429
923.000000, 93.627599
922.000000, 93.617701
921.000000, 93.608615
920.000000, 93.626255
919.000000, 93.663726
918.000000, 93.633665
917.000000, 93.610312
916.000000, 93.579658
915.000000, 93.610243
914.000000, 93.645069
913.000000, 93.649963
912.000000, 93.618697
911.000000, 93.611913
910.000000, 93.593015
909.000000, 93.603085
908.000000, 93.624348
907.000000, 93.644902
906.000000, 93.623504
905.000000, 93.572598
904.000000, 93.615511
903.000000, 93.609777
902.000000, 93.585684
901.000000, 93.615120
900.000000, 93.638461
899.000000, 93.641141
898.000000, 93.646182
897.000000, 93.626012
896.000000, 93.598022
895.000000, 93.618767
894.000000, 93.613797
893.000000, 93.610226
892.000000, 93.619701
891.000000, 93.633576
890.000000, 93.627026
889.000000, 93.614384
888.000000, 93.610837
887.000000, 93.614335
886.000000, 93.621484
885.000000, 93.627337
884.000000, 93.619650
883.000000, 93.643724
882.000000, 93.615038
881.000000, 93.595253
880.000000, 93.618055
879.000000, 93.604610
878.000000, 93.577076
877.000000, 93.563004
876.000000, 93.544908
875.000000, 93.573574
874.000000, 93.597019
873.000000, 93.592639
872.000000, 93.627194
871.000000, 93.607068
870.000000, 93.582296
869.000000, 93.587336
868.000000, 93.589370
867.000000, 93.584663
866.000000, 93.576051
865.000000, 93.585341
864.000000, 93.588841
863.000000, 93.587251
862.000000, 93.589929
861.000000, 93.592700
860.000000, 93.349362
859.000000, 93.156742
858.000000, 93.252841
857.000000, 93.234073
856.000000, 93.211251
855.000000, 93.213247
854.000000, 93.219462
853.000000, 93.230499
852.000000, 93.229900
851.000000, 93.170049
850.000000, 93.134648
849.000000, 93.238994
848.000000, 93.274890
847.000000, 93.213702
846.000000, 93.192459
845.000000, 93.143294
844.000000, 93.161023
843.000000, 93.202913
842.000000, 93.218700
841.000000, 93.200514
840.000000, 93.206214
839.000000, 93.163187
838.000000, 93.151288
837.000000, 93.227531
836.000000, 93.204319
835.000000, 93.181699
834.000000, 93.194885
833.000000, 93.197303
832.000000, 93.171273
831.000000, 93.214509
830.000000, 93.207974
829.000000, 93.165070
828.000000, 93.158574
827.000000, 93.187389
826.000000, 93.188140
825.000000, 93.194715
824.000000, 93.191510
823.000000, 93.161902
822.000000, 93.186566
821.000000, 93.162917
820.000000, 93.169249
819.000000, 93.184337
818.000000, 93.204177
817.000000, 93.191638
816.000000, 93.201026
815.000000, 93.193180
814.000000, 93.170151
813.000000, 93.164672
812.000000, 93.163967
811.000000, 93.153336
810.000000, 93.192171
809.000000, 93.205468
808.000000, 93.174129
807.000000, 93.172579
806.000000, 93.138238
805.000000, 93.179819
804.000000, 93.178664
803.000000, 93.208516
802.000000, 93.186057
801.000000, 93.212038
800.000000, 93.147158
799.000000, 93.114894
798.000000, 93.193189
797.000000, 93.198513
796.000000, 93.145023
795.000000, 93.215575
794.000000, 93.122409
793.000000, 93.129412
792.000000, 93.171815
791.000000, 93.190547
790.000000, 93.111464
789.000000, 93.168363
788.000000, 93.191666
787.000000, 93.141895
786.000000, 93.170536
785.000000, 93.213613
784.000000, 93.116998
783.000000, 93.153800
782.000000, 93.138388
781.000000, 93.189598
780.000000, 93.174894
779.000000, 93.198078
778.000000, 93.143605
777.000000, 93.189046
776.000000, 93.153789
775.000000, 93.136170
774.000000, 93.139759
773.000000, 93.151091
772.000000, 93.183125
771.000000, 93.145893
770.000000, 93.162931
769.000000, 93.169492
768.000000, 93.204345
767.000000, 93.162639
766.000000, 93.147369
765.000000, 93.168366
764.000000, 93.105372
763.000000, 93.129320
762.000000, 93.200614
761.000000, 93.192113
760.000000, 93.122870
759.000000, 93.148980
758.000000, 93.147583
757.000000, 93.129191
756.000000, 93.122710
755.000000, 93.171350
754.000000, 93.140378
753.000000, 93.169962
752.000000, 93.159361
751.000000, 93.127332
750.000000, 93.162122
749.000000, 93.169114
748.000000, 93.110565
747.000000, 93.134197
746.000000, 93.126181
745.000000, 93.164437
744.000000, 93.181911
743.000000, 93.160345
742.000000, 93.122215
741.000000, 93.189104
740.000000, 93.147907
739.000000, 93.107786
738.000000, 93.150843
737.000000, 93.080659
736.000000, 93.113745
735.000000, 93.182373
734.000000, 93.180290
733.000000, 93.133866
732.000000, 93.172827
731.000000, 93.167131
730.000000, 93.100973
729.000000, 93.146938
728.000000, 93.121747
727.000000, 93.174523
726.000000, 93.163774
725.000000, 93.158874
724.000000, 93.116942
723.000000, 93.153790
722.000000, 93.101435
721.000000, 93.125781
720.000000, 93.162037
719.000000, 93.188118
718.000000, 93.156888
717.000000, 93.137222
716.000000, 93.110177
715.000000, 93.126819
714.000000, 93.165113
713.000000, 93.118312
712.000000, 93.123864
711.000000, 93.136366
710.000000, 93.133671
709.000000, 93.112116
708.000000, 93.173181
707.000000, 93.140827
706.000000, 93.103617
705.000000, 93.117185
704.000000, 93.113904
703.000000, 93.142303
702.000000, 93.169998
701.000000, 93.156203
700.000000, 93.126194
699.000000, 93.109548
698.000000, 93.123597
697.000000, 93.113798
696.000000, 93.151217
695.000000, 93.125470
694.000000, 93.091536
693.000000, 93.132456
692.000000, 93.151632
691.000000, 93.158244
690.000000, 93.161181
689.000000, 93.154120
688.000000, 93.121884
687.000000, 93.126029
686.000000, 93.126253
685.000000, 93.122278
684.000000, 93.141254
683.000000, 93.140323
682.000000, 93.095264
681.000000, 93.118274
680.000000, 93.120468
679.000000, 93.118078
678.000000, 93.147756
677.000000, 93.153942
676.000000, 93.134469
675.000000, 93.133880
674.000000, 93.150224
673.000000, 93.099987
672.000000, 93.129920
671.000000, 93.137128
670.000000, 93.089059
669.000000, 93.113359
668.000000, 93.114403
667.000000, 93.130011
666.000000, 93.133061
665.000000, 93.113190
664.000000, 93.113642
663.000000, 93.165182
662.000000, 93.125517
661.000000, 93.144011
660.000000, 93.155107
659.000000, 93.118916
658.000000, 93.061442
657.000000, 93.091682
656.000000, 93.073814
655.000000, 93.125854
654.000000, 93.147794
653.000000, 93.102406
652.000000, 93.071440
651.000000, 93.111960
650.000000, 93.086108
649.000000, 93.078166
648.000000, 93.139747
647.000000, 93.125503
646.000000, 93.111741
645.000000, 93.118685
644.000000, 93.098734
643.000000, 93.093307
642.000000, 93.114500
641.000000, 93.101259
640.000000, 93.096574
639.000000, 93.118162
638.000000, 93.115968
637.000000, 93.135663
636.000000, 93.154415
635.000000, 93.103483
634.000000, 93.087981
633.000000, 93.084495
632.000000, 93.084240
631.000000, 93.112070
630.000000, 93.128208
629.000000, 93.119139
628.000000, 93.103625
627.000000, 93.085449
626.000000, 93.075208
625.000000, 93.081778
624.000000, 93.088603
623.000000, 93.074529
622.000000, 93.080845
621.000000, 93.098911
620.000000, 93.097602
619.000000, 93.105655
618.000000, 93.113062
617.000000, 93.087226
616.000000, 93.066553
615.000000, 93.061766
614.000000, 93.069623
613.000000, 93.100339
612.000000, 93.139966
611.000000, 93.119331
610.000000, 93.088006
609.000000, 93.092643
608.000000, 93.064586
607.000000, 93.070405
606.000000, 93.112984
605.000000, 93.074216
604.000000, 93.038780
603.000000, 93.071085
602.000000, 93.080681
601.000000, 93.084719
600.000000, 93.108839
599.000000, 93.077941
598.000000, 93.066114
597.000000, 93.075501
596.000000, 93.070841
595.000000, 93.102233
594.000000, 93.112264
593.000000, 93.084132
592.000000, 93.066534
591.000000, 93.071367
590.000000, 93.058164
589.000000, 93.072336
588.000000, 93.064932
587.000000, 93.033827
586.000000, 93.048133
585.000000, 93.057684
584.000000, 93.048025
583.000000, 93.106416
582.000000, 93.083595
581.000000, 93.032924
580.000000, 93.030640
579.000000, 93.043832
578.000000, 93.038614
577.000000, 93.060809
576.000000, 93.058430
575.000000, 93.036051
574.000000, 93.023585
573.000000, 93.028439
572.000000, 93.043560
571.000000, 93.064805
570.000000, 93.055905
569.000000, 93.015057
568.000000, 93.028785
567.000000, 93.039226
566.000000, 93.041129
565.000000, 93.038601
564.000000, 93.043634
563.000000, 93.030978
562.000000, 93.022844
561.000000, 93.036057
560.000000, 93.028414
559.000000, 93.026892
558.000000, 93.029694
557.000000, 93.027919
556.000000, 93.065599
555.000000, 93.058400
554.000000, 93.026029
553.000000, 92.991553
552.000000, 92.995104
551.000000, 93.004479
550.000000, 93.039557
549.000000, 93.066062
548.000000, 93.016457
547.000000, 93.030396
546.000000, 93.019904
545.000000, 93.005750
544.000000, 93.032057
543.000000, 93.040150
542.000000, 93.005802
541.000000, 93.014297
540.000000, 93.035179
539.000000, 93.030409
538.000000, 93.023951
537.000000, 93.026835
536.000000, 93.013626
535.000000, 93.014583
534.000000, 93.033933
533.000000, 93.044700
532.000000, 92.993391
531.000000, 93.018389
530.000000, 93.004307
529.000000, 92.974519
528.000000, 92.994293
527.000000, 92.992300
526.000000, 93.002538
525.000000, 93.026082
524.000000, 92.997029
523.000000, 92.991872
522.000000, 93.024277
521.000000, 93.013373
520.000000, 93.028527
519.000000, 93.006169
518.000000, 92.972507
517.000000, 93.000569
516.000000, 93.001374
515.000000, 92.983645
514.000000, 93.007496
513.000000, 93.035911
512.000000, 92.961882
511.000000, 92.987253
510.000000, 92.967392
509.000000, 92.927737
508.000000, 92.948845
507.000000, 92.991703
506.000000, 92.956835
505.000000, 92.977982
504.000000, 92.991514
503.000000, 92.972625
502.000000, 92.956493
501.000000, 92.945692
500.000000, 92.934453
499.000000, 92.972316
498.000000, 92.952587
497.000000, 92.988209
496.000000, 93.001648
495.000000, 92.969393
494.000000, 92.910055
493.000000, 92.937936
492.000000, 92.916042
491.000000, 92.953557
490.000000, 92.945500
489.000000, 92.964204
488.000000, 92.929824
487.000000, 92.902507
486.000000, 92.924806
485.000000, 92.911785
484.000000, 92.958710
483.000000, 92.965485
482.000000, 92.929989
481.000000, 92.935557
480.000000, 92.895308
479.000000, 92.927420
478.000000, 92.923729
477.000000, 92.987534
476.000000, 92.892341
475.000000, 92.888253
474.000000, 92.901837
473.000000, 92.905054
472.000000, 92.915249
471.000000, 92.905253
470.000000, 92.870718
469.000000, 92.914808
468.000000, 92.913111
467.000000, 92.889099
466.000000, 92.900525
465.000000, 92.966163
464.000000, 92.863918
463.000000, 92.858784
462.000000, 92.846519
461.000000, 92.897889
460.000000, 92.904646
459.000000, 92.894802
458.000000, 92.837020
457.000000, 92.862574
456.000000, 92.871282
455.000000, 92.822612
454.000000, 92.860071
453.000000, 92.888568
452.000000, 92.876893
451.000000, 92.875490
450.000000, 92.865124
449.000000, 92.835205
448.000000, 92.882413
447.000000, 92.865715
446.000000, 92.800433
445.000000, 92.850452
444.000000, 92.823314
443.000000, 92.849004
442.000000, 92.867236
441.000000, 92.843471
440.000000, 92.785747
439.000000, 92.827269
438.000000, 92.811462
437.000000, 92.845199
436.000000, 92.859974
435.000000, 92.848957
434.000000, 92.815274
433.000000, 92.836593
432.000000, 92.821251
431.000000, 92.797485
430.000000, 92.856849
429.000000, 92.829618
428.000000, 92.784135
427.000000, 92.787424
426.000000, 92.788773
425.000000, 92.782841
424.000000, 92.812894
423.000000, 92.816140
422.000000, 92.771901
421.000000, 92.769277
420.000000, 92.790125
419.000000, 92.799367
418.000000, 92.814177
417.000000, 92.783451
416.000000, 92.750827
415.000000, 92.704025
414.000000, 92.751422
413.000000, 92.758819
412.000000, 92.776206
411.000000, 92.778631
410.000000, 92.727733
409.000000, 92.740612
408.000000, 92.725026
407.000000, 92.692364
406.000000, 92.732503
405.000000, 92.769077
404.000000, 92.680566
403.000000, 92.721265
402.000000, 92.726168
401.000000, 92.745412
400.000000, 92.726149
399.000000, 92.692211
398.000000, 92.671082
397.000000, 92.720613
396.000000, 92.712028
395.000000, 92.680367
394.000000, 92.737615
393.000000, 92.694536
392.000000, 92.646830
391.000000, 92.655568
390.000000, 92.670550
389.000000, 92.661423
388.000000, 92.692165
387.000000, 92.638286
386.000000, 92.629454
385.000000, 92.617556
384.000000, 92.624923
383.000000, 92.642584
382.000000, 92.650225
381.000000, 92.640849
380.000000, 92.598322
379.000000, 92.636044
378.000000, 92.639967
377.000000, 92.639992
376.000000, 92.596020
375.000000, 92.610519
374.000000, 92.588785
373.000000, 92.609370
372.000000, 92.649091
371.000000, 92.627514
370.000000, 92.601236
369.000000, 92.584726
368.000000, 92.586305
367.000000, 92.590483
366.000000, 92.590624
365.000000, 92.586772
364.000000, 92.568061
363.000000, 92.563855
362.000000, 92.539092
361.000000, 92.533772
360.000000, 92.537411
359.000000, 92.521040
358.000000, 92.504770
357.000000, 92.505537
356.000000, 92.512054
355.000000, 92.528606
354.000000, 92.515255
353.000000, 92.495115
352.000000, 92.476017
351.000000, 92.471628
350.000000, 92.457592
349.000000, 92.460589
348.000000, 92.473377
347.000000, 92.474451
346.000000, 92.452981
345.000000, 92.450682
344.000000, 92.450653
343.000000, 92.438563
342.000000, 92.453219
341.000000, 92.432866
340.000000, 92.414672
339.000000, 92.398705
338.000000, 92.378089
337.000000, 92.387116
336.000000, 92.393745
335.000000, 92.366023
334.000000, 92.339505
333.000000, 92.337809
332.000000, 92.350376
331.000000, 92.358120
330.000000, 92.347796
329.000000, 92.339067
328.000000, 92.331161
327.000000, 92.323327
326.000000, 92.324557
325.000000, 92.315997
324.000000, 92.292621
323.000000, 92.268154
322.000000, 92.259239
321.000000, 92.271656
320.000000, 92.252631
319.000000, 92.227360
318.000000, 92.254287
317.000000, 92.276598
316.000000, 92.262204
315.000000, 92.246018
314.000000, 92.223679
313.000000, 92.229301
312.000000, 92.230726
311.000000, 92.220969
310.000000, 92.214257
309.000000, 92.177151
308.000000, 92.155493
307.000000, 92.143592
306.000000, 92.143463
305.000000, 92.155728
304.000000, 92.137126
303.000000, 92.136143
302.000000, 92.129144
301.000000, 92.132979
300.000000, 92.117833
299.000000, 92.094723
298.000000, 92.064973
297.000000, 92.053122
296.000000, 92.030370
295.000000, 92.038665
294.000000, 92.046773
293.000000, 92.011056
292.000000, 91.966646
291.000000, 91.979383
290.000000, 91.968486
289.000000, 91.975870
288.000000, 91.960627
287.000000, 91.904920
286.000000, 91.886590
285.000000, 91.914665
284.000000, 91.909310
283.000000, 91.907301
282.000000, 91.889303
281.000000, 91.855517
280.000000, 91.835148
279.000000, 91.825469
278.000000, 91.800561
277.000000, 91.796251
276.000000, 91.796733
275.000000, 91.757230
274.000000, 91.734433
273.000000, 91.737598
272.000000, 91.702227
271.000000, 91.716763
270.000000, 91.708429
269.000000, 91.658779
268.000000, 91.672169
267.000000, 91.641360
266.000000, 91.633291
265.000000, 91.635139
264.000000, 91.612273
263.000000, 91.557154
262.000000, 91.531813
261.000000, 91.508768
260.000000, 91.524972
259.000000, 91.539882
258.000000, 91.547586
257.000000, 91.481780
256.000000, 91.463019
255.000000, 91.446154
254.000000, 91.436527
253.000000, 91.435795
252.000000, 91.383348
251.000000, 91.368288
250.000000, 91.354598
