1998.12551	0.00970
2000.05420	0.01016
2001.98290	0.01062
2003.91159	0.01111
2005.84028	0.01160
2007.76898	0.01212
2009.69767	0.01264
2011.62636	0.01316
2013.55505	0.01368
2015.48375	0.01420
2017.41244	0.01474
2019.34113	0.01524
2021.26982	0.01570
2023.19852	0.01618
2025.12721	0.01666
2027.05590	0.01714
2028.98459	0.01759
2030.91329	0.01801
2032.84198	0.01842
2034.77067	0.01885
2036.69936	0.01929
2038.62806	0.01971
2040.55675	0.02010
2042.48544	0.02049
2044.41413	0.02089
2046.34283	0.02126
2048.27152	0.02160
2050.20021	0.02195
2052.12890	0.02232
2054.05760	0.02269
2055.98629	0.02305
2057.91498	0.02339
2059.84367	0.02373
2061.77237	0.02407
2063.70106	0.02445
2065.62975	0.02486
2067.55844	0.02524
2069.48714	0.02561
2071.41583	0.02600
2073.34452	0.02643
2075.27322	0.02688
2077.20191	0.02734
2079.13060	0.02780
2081.05929	0.02828
2082.98799	0.02879
2084.91668	0.02934
2086.84537	0.02991
2088.77406	0.03051
2090.70276	0.03113
2092.63145	0.03179
2094.56014	0.03248
2096.48883	0.03319
2098.41753	0.03391
2100.34622	0.03466
2102.27491	0.03548
2104.20360	0.03634
2106.13230	0.03722
2108.06099	0.03815
2109.98968	0.03915
2111.91837	0.04019
2113.84707	0.04127
2115.77576	0.04235
2117.70445	0.04349
2119.63314	0.04471
2121.56184	0.04601
2123.49053	0.04733
2125.41922	0.04869
2127.34791	0.05014
2129.27661	0.05166
2131.20530	0.05321
2133.13399	0.05480
2135.06269	0.05645
2136.99138	0.05818
2138.92007	0.05997
2140.84876	0.06186
2142.77746	0.06380
2144.70615	0.06577
2146.63484	0.06781
2148.56353	0.06996
2150.49223	0.07217
2152.42092	0.07444
2154.34961	0.07683
2156.27830	0.07933
2158.20700	0.08189
2160.13569	0.08450
2162.06438	0.08717
2163.99307	0.08994
2165.92177	0.09280
2167.85046	0.09573
2169.77915	0.09876
2171.70784	0.10191
2173.63654	0.10513
2175.56523	0.10842
2177.49392	0.11180
2179.42261	0.11527
2181.35131	0.11881
2183.28000	0.12246
2185.20869	0.12623
2187.13738	0.13008
2189.06608	0.13402
2190.99477	0.13801
2192.92346	0.14206
2194.85216	0.14620
2196.78085	0.15044
2198.70954	0.15475
2200.63823	0.15911
2202.56693	0.16354
2204.49562	0.16807
2206.42431	0.17268
2208.35300	0.17733
2210.28170	0.18205
2212.21039	0.18682
2214.13908	0.19163
2216.06777	0.19649
2217.99647	0.20141
2219.92516	0.20638
2221.85385	0.21139
2223.78254	0.21642
2225.71124	0.22150
2227.63993	0.22662
2229.56862	0.23175
2231.49731	0.23692
2233.42601	0.24216
2235.35470	0.24741
2237.28339	0.25268
2239.21208	0.25794
2241.14078	0.26321
2243.06947	0.26849
2244.99816	0.27382
2246.92685	0.27913
2248.85555	0.28441
2250.78424	0.28972
2252.71293	0.29504
2254.64163	0.30034
2256.57032	0.30559
2258.49901	0.31081
2260.42770	0.31602
2262.35640	0.32121
2264.28509	0.32641
2266.21378	0.33158
2268.14247	0.33672
2270.07117	0.34184
2271.99986	0.34690
2273.92855	0.35190
2275.85724	0.35690
2277.78594	0.36193
2279.71463	0.36694
2281.64332	0.37189
2283.57201	0.37670
2285.50071	0.38139
2287.42940	0.38601
2289.35809	0.39055
2291.28678	0.39503
2293.21548	0.39949
2295.14417	0.40393
2297.07286	0.40828
2299.00155	0.41252
2300.93025	0.41665
2302.85894	0.42067
2304.78763	0.42467
2306.71632	0.42863
2308.64502	0.43241
2310.57371	0.43607
2312.50240	0.43983
2314.43110	0.44358
2316.35979	0.44703
2318.28848	0.45022
2320.21717	0.45345
2322.14587	0.45681
2324.07456	0.46013
2326.00325	0.46332
2327.93194	0.46620
2329.86064	0.46904
2331.78933	0.47220
2333.71802	0.47529
2335.64671	0.47817
2337.57541	0.48110
2339.50410	0.48408
2341.43279	0.48703
2343.36148	0.49017
2345.29018	0.49395
2347.21887	0.49774
2349.14756	0.50052
2351.07625	0.50240
2353.00495	0.50397
2354.93364	0.50560
2356.86233	0.50745
2358.79102	0.50971
2360.71972	0.51241
2362.64841	0.51541
2364.57710	0.51858
2366.50579	0.52176
2368.43449	0.52494
2370.36318	0.52814
2372.29187	0.53140
2374.22057	0.53476
2376.14926	0.53810
2378.07795	0.54125
2380.00664	0.54413
2381.93534	0.54683
2383.86403	0.54943
2385.79272	0.55184
2387.72141	0.55405
2389.65011	0.55620
2391.57880	0.55833
2393.50749	0.56043
2395.43618	0.56250
2397.36488	0.56450
2399.29357	0.56644
2401.22226	0.56837
2403.15095	0.57030
2405.07965	0.57221
2407.00834	0.57409
2408.93703	0.57594
2410.86572	0.57778
2412.79442	0.57958
2414.72311	0.58132
2416.65180	0.58304
2418.58049	0.58474
2420.50919	0.58642
2422.43788	0.58810
2424.36657	0.58978
2426.29526	0.59139
2428.22396	0.59296
2430.15265	0.59453
2432.08134	0.59608
2434.01004	0.59757
2435.93873	0.59901
2437.86742	0.60045
2439.79611	0.60188
2441.72481	0.60325
2443.65350	0.60457
2445.58219	0.60590
2447.51088	0.60720
2449.43958	0.60845
2451.36827	0.60967
2453.29696	0.61086
2455.22565	0.61206
2457.15435	0.61326
2459.08304	0.61441
2461.01173	0.61552
2462.94042	0.61661
2464.86912	0.61771
2466.79781	0.61878
2468.72650	0.61977
2470.65519	0.62069
2472.58389	0.62159
2474.51258	0.62251
2476.44127	0.62338
2478.36996	0.62421
2480.29866	0.62505
2482.22735	0.62589
2484.15604	0.62665
2486.08473	0.62736
2488.01343	0.62812
2489.94212	0.62890
2491.87081	0.62960
2493.79950	0.63020
2495.72820	0.63077
2497.65689	0.63139
2499.58558	0.63202
2501.51428	0.63261
2503.44297	0.63314
2505.37166	0.63367
2507.30035	0.63419
2509.22905	0.63466
2511.15774	0.63503
2513.08643	0.63539
2515.01512	0.63580
2516.94382	0.63617
2518.87251	0.63647
2520.80120	0.63680
2522.72989	0.63716
2524.65859	0.63749
2526.58728	0.63776
2528.51597	0.63798
2530.44466	0.63820
2532.37336	0.63843
2534.30205	0.63866
2536.23074	0.63888
2538.15943	0.63910
2540.08813	0.63930
2542.01682	0.63944
2543.94551	0.63955
2545.87420	0.63965
2547.80290	0.63975
2549.73159	0.63980
2551.66028	0.63984
2553.58897	0.63992
2555.51767	0.64000
2557.44636	0.64007
2559.37505	0.64013
2561.30375	0.64013
2563.23244	0.64012
2565.16113	0.64011
2567.08982	0.64006
2569.01852	0.63999
2570.94721	0.63995
2572.87590	0.63993
2574.80459	0.63990
2576.73329	0.63981
2578.66198	0.63971
2580.59067	0.63962
2582.51936	0.63950
2584.44806	0.63933
2586.37675	0.63917
2588.30544	0.63905
2590.23413	0.63894
2592.16283	0.63883
2594.09152	0.63874
2596.02021	0.63862
2597.94890	0.63849
2599.87760	0.63831
2601.80629	0.63811
2603.73498	0.63794
2605.66367	0.63776
2607.59237	0.63751
2609.52106	0.63724
2611.44975	0.63699
2613.37844	0.63674
2615.30714	0.63651
2617.23583	0.63631
2619.16452	0.63613
2621.09322	0.63592
2623.02191	0.63572
2624.95060	0.63553
2626.87929	0.63529
2628.80799	0.63499
2630.73668	0.63475
2632.66537	0.63456
2634.59406	0.63429
2636.52276	0.63398
2638.45145	0.63370
2640.38014	0.63345
2642.30883	0.63321
2644.23753	0.63297
2646.16622	0.63275
2648.09491	0.63255
2650.02360	0.63231
2651.95230	0.63201
2653.88099	0.63169
2655.80968	0.63136
2657.73837	0.63104
2659.66707	0.63080
2661.59576	0.63060
2663.52445	0.63038
2665.45314	0.63016
2667.38184	0.62987
2669.31053	0.62955
2671.23922	0.62929
2673.16791	0.62907
2675.09661	0.62881
2677.02530	0.62853
2678.95399	0.62821
2680.88269	0.62788
2682.81138	0.62762
2684.74007	0.62739
2686.66876	0.62714
2688.59746	0.62683
2690.52615	0.62655
2692.45484	0.62631
2694.38353	0.62606
2696.31223	0.62580
2698.24092	0.62555
2700.16961	0.62530
2702.09830	0.62504
2704.02700	0.62479
2705.95569	0.62451
2707.88438	0.62420
2709.81307	0.62391
2711.74177	0.62362
2713.67046	0.62332
2715.59915	0.62301
2717.52784	0.62269
2719.45654	0.62243
2721.38523	0.62222
2723.31392	0.62199
2725.24261	0.62171
2727.17131	0.62140
2729.10000	0.62111
2731.02869	0.62079
2732.95738	0.62046
2734.88608	0.62015
2736.81477	0.61987
2738.74346	0.61963
2740.67216	0.61935
2742.60085	0.61906
2744.52954	0.61882
2746.45823	0.61858
2748.38693	0.61831
2750.31562	0.61806
2752.24431	0.61779
2754.17300	0.61751
2756.10170	0.61727
2758.03039	0.61703
2759.95908	0.61674
2761.88777	0.61641
2763.81647	0.61612
2765.74516	0.61591
2767.67385	0.61569
2769.60254	0.61539
2771.53124	0.61512
2773.45993	0.61493
2775.38862	0.61472
2777.31731	0.61443
2779.24601	0.61411
2781.17470	0.61384
2783.10339	0.61363
2785.03208	0.61340
2786.96078	0.61311
2788.88947	0.61285
2790.81816	0.61263
2792.74685	0.61239
2794.67555	0.61215
2796.60424	0.61197
2798.53293	0.61181
2800.46163	0.61164
2802.39032	0.61145
2804.31901	0.61120
2806.24770	0.61090
2808.17640	0.61062
2810.10509	0.61035
2812.03378	0.61012
2813.96247	0.61000
2815.89117	0.60993
2817.81986	0.60980
2819.74855	0.60966
2821.67724	0.60950
2823.60594	0.60924
2825.53463	0.60892
2827.46332	0.60865
2829.39201	0.60851
2831.32071	0.60846
2833.24940	0.60837
2835.17809	0.60816
2837.10678	0.60789
2839.03548	0.60767
2840.96417	0.60750
2842.89286	0.60730
2844.82155	0.60706
2846.75025	0.60671
2848.67894	0.60626
2850.60763	0.60592
2852.53632	0.60579
2854.46502	0.60580
2856.39371	0.60585
2858.32240	0.60589
2860.25110	0.60593
2862.17979	0.60595
2864.10848	0.60597
2866.03717	0.60595
2867.96587	0.60590
2869.89456	0.60589
2871.82325	0.60597
2873.75194	0.60601
2875.68064	0.60591
2877.60933	0.60581
2879.53802	0.60576
2881.46671	0.60573
2883.39541	0.60570
2885.32410	0.60569
2887.25279	0.60566
2889.18148	0.60565
2891.11018	0.60566
2893.03887	0.60569
2894.96756	0.60574
2896.89625	0.60574
2898.82495	0.60569
2900.75364	0.60565
2902.68233	0.60564
2904.61102	0.60563
2906.53972	0.60562
2908.46841	0.60567
2910.39710	0.60569
2912.32579	0.60558
2914.25449	0.60537
2916.18318	0.60519
2918.11187	0.60511
2920.04057	0.60513
2921.96926	0.60520
2923.89795	0.60534
2925.82664	0.60557
2927.75534	0.60590
2929.68403	0.60625
2931.61272	0.60657
2933.54141	0.60690
2935.47011	0.60722
2937.39880	0.60749
2939.32749	0.60771
2941.25618	0.60793
2943.18488	0.60819
2945.11357	0.60844
2947.04226	0.60863
2948.97095	0.60884
2950.89965	0.60909
2952.82834	0.60932
2954.75703	0.60946
2956.68572	0.60952
2958.61442	0.60962
2960.54311	0.60979
2962.47180	0.61001
2964.40049	0.61030
2966.32919	0.61065
2968.25788	0.61096
2970.18657	0.61120
2972.11526	0.61144
2974.04396	0.61169
2975.97265	0.61197
2977.90134	0.61230
2979.83003	0.61258
2981.75873	0.61279
2983.68742	0.61298
2985.61611	0.61321
2987.54481	0.61351
2989.47350	0.61385
2991.40219	0.61420
2993.33088	0.61452
2995.25958	0.61476
2997.18827	0.61497
2999.11696	0.61517
3001.04565	0.61543
3002.97435	0.61577
3004.90304	0.61614
3006.83173	0.61645
3008.76042	0.61675
3010.68912	0.61712
3012.61781	0.61752
3014.54650	0.61785
3016.47519	0.61807
3018.40389	0.61830
3020.33258	0.61859
3022.26127	0.61891
3024.18996	0.61920
3026.11866	0.61945
3028.04735	0.61967
3029.97604	0.61996
3031.90473	0.62035
3033.83343	0.62073
3035.76212	0.62102
3037.69081	0.62129
3039.61950	0.62162
3041.54820	0.62197
3043.47689	0.62224
3045.40558	0.62248
3047.33428	0.62278
3049.26297	0.62309
3051.19166	0.62338
3053.12035	0.62370
3055.04905	0.62404
3056.97774	0.62431
3058.90643	0.62452
3060.83512	0.62482
3062.76382	0.62526
3064.69251	0.62575
3066.62120	0.62618
3068.54989	0.62649
3070.47859	0.62669
3072.40728	0.62691
3074.33597	0.62726
3076.26466	0.62766
3078.19336	0.62807
3080.12205	0.62845
3082.05074	0.62879
3083.97943	0.62918
3085.90813	0.62961
3087.83682	0.62990
3089.76551	0.63008
3091.69420	0.63029
3093.62290	0.63060
3095.55159	0.63092
3097.48028	0.63124
3099.40897	0.63162
3101.33767	0.63206
3103.26636	0.63243
3105.19505	0.63274
3107.12375	0.63304
3109.05244	0.63333
3110.98113	0.63361
3112.90982	0.63396
3114.83852	0.63445
3116.76721	0.63499
3118.69590	0.63541
3120.62459	0.63567
3122.55329	0.63583
3124.48198	0.63599
3126.41067	0.63622
3128.33936	0.63662
3130.26806	0.63712
3132.19675	0.63750
3134.12544	0.63776
3136.05413	0.63801
3137.98283	0.63830
3139.91152	0.63858
3141.84021	0.63882
3143.76890	0.63909
3145.69760	0.63940
3147.62629	0.63976
3149.55498	0.64019
3151.48367	0.64060
3153.41237	0.64089
3155.34106	0.64105
3157.26975	0.64121
3159.19844	0.64147
3161.12714	0.64174
3163.05583	0.64197
3164.98452	0.64221
3166.91322	0.64251
3168.84191	0.64281
3170.77060	0.64307
3172.69929	0.64327
3174.62799	0.64347
3176.55668	0.64371
3178.48537	0.64399
3180.41406	0.64425
3182.34276	0.64448
3184.27145	0.64470
3186.20014	0.64492
3188.12883	0.64514
3190.05753	0.64530
3191.98622	0.64541
3193.91491	0.64558
3195.84360	0.64586
3197.77230	0.64613
3199.70099	0.64635
3201.62968	0.64662
3203.55837	0.64694
3205.48707	0.64716
3207.41576	0.64724
3209.34445	0.64727
3211.27314	0.64732
3213.20184	0.64743
3215.13053	0.64761
3217.05922	0.64788
3218.98791	0.64816
3220.91661	0.64832
3222.84530	0.64834
3224.77399	0.64835
3226.70269	0.64842
3228.63138	0.64858
3230.56007	0.64880
3232.48876	0.64896
3234.41746	0.64898
3236.34615	0.64895
3238.27484	0.64896
3240.20353	0.64908
3242.13223	0.64924
3244.06092	0.64935
3245.98961	0.64943
3247.91830	0.64942
3249.84700	0.64927
3251.77569	0.64917
3253.70438	0.64925
3255.63307	0.64936
3257.56177	0.64935
3259.49046	0.64926
3261.41915	0.64919
3263.34784	0.64918
3265.27654	0.64918
3267.20523	0.64921
3269.13392	0.64940
3271.06261	0.64960
3272.99131	0.64959
3274.92000	0.64940
3276.84869	0.64913
3278.77738	0.64890
3280.70608	0.64880
3282.63477	0.64875
3284.56346	0.64864
3286.49216	0.64851
3288.42085	0.64852
3290.34954	0.64864
3292.27823	0.64859
3294.20693	0.64835
3296.13562	0.64808
3298.06431	0.64783
3299.99300	0.64765
3301.92170	0.64759
3303.85039	0.64760
3305.77908	0.64758
3307.70777	0.64751
3309.63647	0.64726
3311.56516	0.64677
3313.49385	0.64622
3315.42254	0.64586
3317.35124	0.64566
3319.27993	0.64543
3321.20862	0.64518
3323.13731	0.64502
3325.06601	0.64494
3326.99470	0.64475
3328.92339	0.64441
3330.85208	0.64408
3332.78078	0.64381
3334.70947	0.64364
3336.63816	0.64357
3338.56685	0.64345
3340.49555	0.64317
3342.42424	0.64285
3344.35293	0.64248
3346.28163	0.64204
3348.21032	0.64171
3350.13901	0.64148
3352.06770	0.64118
3353.99640	0.64079
3355.92509	0.64042
3357.85378	0.64022
3359.78247	0.64010
3361.71117	0.63980
3363.63986	0.63945
3365.56855	0.63926
3367.49724	0.63903
3369.42594	0.63865
3371.35463	0.63818
3373.28332	0.63767
3375.21201	0.63716
3377.14071	0.63671
3379.06940	0.63641
3380.99809	0.63618
3382.92678	0.63587
3384.85548	0.63555
3386.78417	0.63533
3388.71286	0.63518
3390.64155	0.63502
3392.57025	0.63465
3394.49894	0.63411
3396.42763	0.63370
3398.35632	0.63353
3400.28502	0.63339
3402.21371	0.63303
3404.14240	0.63246
3406.07109	0.63196
3407.99979	0.63166
3409.92848	0.63147
3411.85717	0.63126
3413.78587	0.63088
3415.71456	0.63030
3417.64325	0.62973
3419.57194	0.62933
3421.50064	0.62904
3423.42933	0.62879
3425.35802	0.62862
3427.28671	0.62849
3429.21541	0.62836
3431.14410	0.62821
3433.07279	0.62800
3435.00148	0.62772
3436.93018	0.62725
3438.85887	0.62670
3440.78756	0.62627
3442.71625	0.62594
3444.64495	0.62564
3446.57364	0.62539
3448.50233	0.62508
3450.43102	0.62467
3452.35972	0.62433
3454.28841	0.62413
3456.21710	0.62400
3458.14579	0.62387
3460.07449	0.62374
3462.00318	0.62354
3463.93187	0.62340
3465.86056	0.62339
3467.78926	0.62335
3469.71795	0.62312
3471.64664	0.62279
3473.57534	0.62257
3475.50403	0.62249
3477.43272	0.62247
3479.36141	0.62244
3481.29011	0.62225
3483.21880	0.62194
3485.14749	0.62177
3487.07618	0.62176
3489.00488	0.62168
3490.93357	0.62158
3492.86226	0.62165
3494.79095	0.62179
3496.71965	0.62179
3498.64834	0.62173
3500.57703	0.62185
3502.50572	0.62200
3504.43442	0.62188
3506.36311	0.62171
3508.29180	0.62174
3510.22049	0.62181
3512.14919	0.62193
3514.07788	0.62205
3516.00657	0.62209
3517.93526	0.62214
3519.86396	0.62240
3521.79265	0.62292
3523.72134	0.62341
3525.65003	0.62360
3527.57873	0.62372
3529.50742	0.62391
3531.43611	0.62409
3533.36481	0.62445
3535.29350	0.62494
3537.22219	0.62531
3539.15088	0.62573
3541.07958	0.62650
3543.00827	0.62755
3544.93696	0.62844
3546.86565	0.62882
3548.79435	0.62898
3550.72304	0.62942
3552.65173	0.63016
3554.58042	0.63097
3556.50912	0.63182
3558.43781	0.63274
3560.36650	0.63384
3562.29519	0.63493
3564.22389	0.63592
3566.15258	0.63714
3568.08127	0.63860
3570.00996	0.63971
3571.93866	0.64069
3573.86735	0.64201
3575.79604	0.64361
3577.72473	0.64535
3579.65343	0.64703
3581.58212	0.64879
3583.51081	0.65076
3585.43950	0.65282
3587.36820	0.65497
3589.29689	0.65692
3591.22558	0.65862
3593.15428	0.66045
3595.08297	0.66289
3597.01166	0.66558
3598.94035	0.66815
3600.86905	0.67086
3602.79774	0.67358
3604.72643	0.67621
3606.65512	0.67891
3608.58382	0.68224
3610.51251	0.68574
3612.44120	0.68910
3614.36989	0.69261
3616.29859	0.69584
3618.22728	0.69944
3620.15597	0.70398
3622.08466	0.70800
3624.01336	0.71128
3625.94205	0.71451
3627.87074	0.71839
3629.79943	0.72416
3631.72813	0.72945
3633.65682	0.73387
3635.58551	0.73844
3637.51420	0.74286
3639.44290	0.74741
3641.37159	0.75226
3643.30028	0.75703
3645.22897	0.76114
3647.15767	0.76511
3649.08636	0.77159
3651.01505	0.77904
3652.94375	0.78310
3654.87244	0.78637
3656.80113	0.79126
3658.72982	0.79677
3660.65852	0.80135
3662.58721	0.80555
3664.51590	0.80956
3666.44459	0.81325
3668.37329	0.81675
3670.30198	0.82134
3672.23067	0.82552
3674.15936	0.82866
3676.08806	0.83333
3678.01675	0.83787
3679.94544	0.84089
3681.87413	0.84371
3683.80283	0.84649
3685.73152	0.84917
3687.66021	0.85204
3689.58890	0.85501
3691.51760	0.85707
3693.44629	0.85854
3695.37498	0.86008
3697.30367	0.86151
3699.23237	0.86259
3701.16106	0.86369
3703.08975	0.86510
3705.01844	0.86653
3706.94714	0.86770
3708.87583	0.86877
3710.80452	0.86980
3712.73322	0.87060
3714.66191	0.87121
3716.59060	0.87159
3718.51929	0.87170
3720.44799	0.87176
3722.37668	0.87201
3724.30537	0.87241
3726.23406	0.87299
3728.16276	0.87362
3730.09145	0.87414
3732.02014	0.87475
3733.94883	0.87565
3735.87753	0.87682
3737.80622	0.87731
3739.73491	0.87722
3741.66360	0.87712
3743.59230	0.87709
3745.52099	0.87703
3747.44968	0.87658
3749.37837	0.87554
3751.30707	0.87492
3753.23576	0.87646
3755.16445	0.87803
3757.09314	0.87878
3759.02184	0.87902
3760.95053	0.87896
3762.87922	0.87899
3764.80791	0.87916
3766.73661	0.87920
3768.66530	0.87886
3770.59399	0.87846
3772.52269	0.87852
3774.45138	0.87888
3776.38007	0.87934
3778.30876	0.87984
3780.23746	0.88002
3782.16615	0.87975
3784.09484	0.87944
3786.02353	0.87944
3787.95223	0.87980
3789.88092	0.88012
3791.80961	0.88017
3793.73830	0.88013
3795.66700	0.88000
3797.59569	0.87989
3799.52438	0.88010
3801.45307	0.88025
3803.38177	0.88005
3805.31046	0.88014
3807.23915	0.88035
3809.16784	0.88038
3811.09654	0.88046
3813.02523	0.88071
3814.95392	0.88110
3816.88261	0.88132
3818.81131	0.88111
3820.74000	0.88033
3822.66869	0.87996
3824.59738	0.88048
3826.52608	0.88073
3828.45477	0.88073
3830.38346	0.88091
3832.31216	0.88126
3834.24085	0.88187
3836.16954	0.88249
3838.09823	0.88236
3840.02693	0.88182
3841.95562	0.88192
3843.88431	0.88222
3845.81300	0.88230
3847.74170	0.88232
3849.67039	0.88238
3851.59908	0.88175
3853.52777	0.87923
3855.45647	0.87841
3857.38516	0.87981
3859.31385	0.88094
3861.24254	0.88168
3863.17124	0.88210
3865.09993	0.88190
3867.02862	0.88133
3868.95731	0.88093
3870.88601	0.88100
3872.81470	0.88138
3874.74339	0.88162
3876.67208	0.88177
3878.60078	0.88173
3880.52947	0.88141
3882.45816	0.88163
3884.38685	0.88245
3886.31555	0.88253
3888.24424	0.88211
3890.17293	0.88207
3892.10162	0.88202
3894.03032	0.88181
3895.95901	0.88168
3897.88770	0.88131
3899.81640	0.88058
3901.74509	0.88021
3903.67378	0.88068
3905.60247	0.88130
3907.53117	0.88165
3909.45986	0.88176
3911.38855	0.88173
3913.31724	0.88173
3915.24594	0.88168
3917.17463	0.88139
3919.10332	0.88113
3921.03201	0.88133
3922.96071	0.88185
3924.88940	0.88218
3926.81809	0.88216
3928.74678	0.88217
3930.67548	0.88227
3932.60417	0.88234
3934.53286	0.88233
3936.46155	0.88223
3938.39025	0.88225
3940.31894	0.88235
3942.24763	0.88234
3944.17632	0.88216
3946.10502	0.88201
3948.03371	0.88190
3949.96240	0.88172
3951.89109	0.88168
3953.81979	0.88180
3955.74848	0.88191
3957.67717	0.88196
3959.60587	0.88196
3961.53456	0.88199
3963.46325	0.88202
3965.39194	0.88217
3967.32064	0.88242
3969.24933	0.88241
3971.17802	0.88222
3973.10671	0.88218
3975.03541	0.88234
3976.96410	0.88249
3978.89279	0.88253
3980.82148	0.88261
3982.75018	0.88280
3984.67887	0.88283
3986.60756	0.88261
3988.53625	0.88246
3990.46495	0.88247
3992.39364	0.88252
3994.32233	0.88251
3996.25102	0.88246
