1998.12551	0.00005
2000.05420	0.00005
2001.98290	0.00007
2003.91159	0.00006
2005.84028	0.00005
2007.76898	0.00006
2009.69767	0.00010
2011.62636	0.00011
2013.55505	0.00009
2015.48375	0.00008
2017.41244	0.00009
2019.34113	0.00009
2021.26982	0.00006
2023.19852	0.00003
2025.12721	0.00002
2027.05590	0.00003
2028.98459	0.00005
2030.91329	0.00010
2032.84198	0.00015
2034.77067	0.00017
2036.69936	0.00017
2038.62806	0.00020
2040.55675	0.00027
2042.48544	0.00035
2044.41413	0.00047
2046.34283	0.00064
2048.27152	0.00088
2050.20021	0.00118
2052.12890	0.00155
2054.05760	0.00205
2055.98629	0.00272
2057.91498	0.00356
2059.84367	0.00463
2061.77237	0.00598
2063.70106	0.00767
2065.62975	0.00984
2067.55844	0.01252
2069.48714	0.01567
2071.41583	0.01939
2073.34452	0.02380
2075.27322	0.02897
2077.20191	0.03494
2079.13060	0.04172
2081.05929	0.04933
2082.98799	0.05777
2084.91668	0.06703
2086.84537	0.07705
2088.77406	0.08782
2090.70276	0.09932
2092.63145	0.11134
2094.56014	0.12378
2096.48883	0.13666
2098.41753	0.14988
2100.34622	0.16327
2102.27491	0.17668
2104.20360	0.18998
2106.13230	0.20314
2108.06099	0.21608
2109.98968	0.22872
2111.91837	0.24096
2113.84707	0.25282
2115.77576	0.26429
2117.70445	0.27526
2119.63314	0.28571
2121.56184	0.29570
2123.49053	0.30524
2125.41922	0.31434
2127.34791	0.32304
2129.27661	0.33136
2131.20530	0.33930
2133.13399	0.34687
2135.06269	0.35415
2136.99138	0.36114
2138.92007	0.36780
2140.84876	0.37417
2142.77746	0.38028
2144.70615	0.38620
2146.63484	0.39192
2148.56353	0.39745
2150.49223	0.40275
2152.42092	0.40780
2154.34961	0.41261
2156.27830	0.41720
2158.20700	0.42154
2160.13569	0.42566
2162.06438	0.42959
2163.99307	0.43327
2165.92177	0.43667
2167.85046	0.43982
2169.77915	0.44276
2171.70784	0.44545
2173.63654	0.44782
2175.56523	0.44990
2177.49392	0.45172
2179.42261	0.45327
2181.35131	0.45454
2183.28000	0.45549
2185.20869	0.45612
2187.13738	0.45646
2189.06608	0.45649
2190.99477	0.45617
2192.92346	0.45550
2194.85216	0.45453
2196.78085	0.45330
2198.70954	0.45182
2200.63823	0.45006
2202.56693	0.44801
2204.49562	0.44573
2206.42431	0.44322
2208.35300	0.44045
2210.28170	0.43746
2212.21039	0.43427
2214.13908	0.43091
2216.06777	0.42740
2217.99647	0.42377
2219.92516	0.42000
2221.85385	0.41612
2223.78254	0.41218
2225.71124	0.40819
2227.63993	0.40413
2229.56862	0.40008
2231.49731	0.39609
2233.42601	0.39218
2235.35470	0.38840
2237.28339	0.38478
2239.21208	0.38133
2241.14078	0.37808
2243.06947	0.37512
2244.99816	0.37250
2246.92685	0.37018
2248.85555	0.36816
2250.78424	0.36653
2252.71293	0.36533
2254.64163	0.36450
2256.57032	0.36400
2258.49901	0.36381
2260.42770	0.36393
2262.35640	0.36437
2264.28509	0.36512
2266.21378	0.36614
2268.14247	0.36745
2270.07117	0.36908
2271.99986	0.37098
2273.92855	0.37309
2275.85724	0.37547
2277.78594	0.37816
2279.71463	0.38116
2281.64332	0.38443
2283.57201	0.38791
2285.50071	0.39161
2287.42940	0.39560
2289.35809	0.39986
2291.28678	0.40434
2293.21548	0.40907
2295.14417	0.41403
2297.07286	0.41921
2299.00155	0.42460
2300.93025	0.43014
2302.85894	0.43581
2304.78763	0.44169
2306.71632	0.44779
2308.64502	0.45397
2310.57371	0.46021
2312.50240	0.46667
2314.43110	0.47316
2316.35979	0.47953
2318.28848	0.48600
2320.21717	0.49266
2322.14587	0.49944
2324.07456	0.50636
2326.00325	0.51306
2327.93194	0.51938
2329.86064	0.52575
2331.78933	0.53223
2333.71802	0.53843
2335.64671	0.54436
2337.57541	0.55025
2339.50410	0.55599
2341.43279	0.56139
2343.36148	0.56669
2345.29018	0.57203
2347.21887	0.57664
2349.14756	0.58036
2351.07625	0.58407
2353.00495	0.58841
2354.93364	0.59288
2356.86233	0.59695
2358.79102	0.60076
2360.71972	0.60435
2362.64841	0.60767
2364.57710	0.61079
2366.50579	0.61355
2368.43449	0.61583
2370.36318	0.61786
2372.29187	0.61988
2374.22057	0.62197
2376.14926	0.62401
2378.07795	0.62588
2380.00664	0.62754
2381.93534	0.62913
2383.86403	0.63076
2385.79272	0.63244
2387.72141	0.63413
2389.65011	0.63586
2391.57880	0.63763
2393.50749	0.63941
2395.43618	0.64119
2397.36488	0.64298
2399.29357	0.64484
2401.22226	0.64678
2403.15095	0.64876
2405.07965	0.65079
2407.00834	0.65294
2408.93703	0.65513
2410.86572	0.65733
2412.79442	0.65959
2414.72311	0.66191
2416.65180	0.66427
2418.58049	0.66664
2420.50919	0.66908
2422.43788	0.67162
2424.36657	0.67420
2426.29526	0.67679
2428.22396	0.67941
2430.15265	0.68211
2432.08134	0.68483
2434.01004	0.68754
2435.93873	0.69027
2437.86742	0.69302
2439.79611	0.69578
2441.72481	0.69850
2443.65350	0.70122
2445.58219	0.70398
2447.51088	0.70674
2449.43958	0.70944
2451.36827	0.71211
2453.29696	0.71481
2455.22565	0.71755
2457.15435	0.72028
2459.08304	0.72290
2461.01173	0.72543
2462.94042	0.72794
2464.86912	0.73047
2466.79781	0.73300
2468.72650	0.73545
2470.65519	0.73776
2472.58389	0.73999
2474.51258	0.74221
2476.44127	0.74434
2478.36996	0.74640
2480.29866	0.74843
2482.22735	0.75044
2484.15604	0.75237
2486.08473	0.75422
2488.01343	0.75603
2489.94212	0.75779
2491.87081	0.75941
2493.79950	0.76091
2495.72820	0.76237
2497.65689	0.76384
2499.58558	0.76525
2501.51428	0.76657
2503.44297	0.76781
2505.37166	0.76899
2507.30035	0.77011
2509.22905	0.77114
2511.15774	0.77208
2513.08643	0.77299
2515.01512	0.77386
2516.94382	0.77463
2518.87251	0.77535
2520.80120	0.77609
2522.72989	0.77684
2524.65859	0.77754
2526.58728	0.77815
2528.51597	0.77870
2530.44466	0.77924
2532.37336	0.77979
2534.30205	0.78028
2536.23074	0.78073
2538.15943	0.78119
2540.08813	0.78159
2542.01682	0.78194
2543.94551	0.78234
2545.87420	0.78278
2547.80290	0.78313
2549.73159	0.78338
2551.66028	0.78366
2553.58897	0.78398
2555.51767	0.78432
2557.44636	0.78466
2559.37505	0.78494
2561.30375	0.78515
2563.23244	0.78539
2565.16113	0.78566
2567.08982	0.78589
2569.01852	0.78612
2570.94721	0.78634
2572.87590	0.78653
2574.80459	0.78674
2576.73329	0.78698
2578.66198	0.78720
2580.59067	0.78742
2582.51936	0.78762
2584.44806	0.78775
2586.37675	0.78786
2588.30544	0.78802
2590.23413	0.78817
2592.16283	0.78832
2594.09152	0.78844
2596.02021	0.78851
2597.94890	0.78858
2599.87760	0.78867
2601.80629	0.78871
2603.73498	0.78870
2605.66367	0.78863
2607.59237	0.78851
2609.52106	0.78833
2611.44975	0.78816
2613.37844	0.78799
2615.30714	0.78780
2617.23583	0.78765
2619.16452	0.78759
2621.09322	0.78749
2623.02191	0.78730
2624.95060	0.78708
2626.87929	0.78683
2628.80799	0.78659
2630.73668	0.78642
2632.66537	0.78627
2634.59406	0.78608
2636.52276	0.78587
2638.45145	0.78569
2640.38014	0.78556
2642.30883	0.78547
2644.23753	0.78539
2646.16622	0.78532
2648.09491	0.78529
2650.02360	0.78532
2651.95230	0.78540
2653.88099	0.78554
2655.80968	0.78572
2657.73837	0.78592
2659.66707	0.78622
2661.59576	0.78663
2663.52445	0.78711
2665.45314	0.78765
2667.38184	0.78825
2669.31053	0.78896
2671.23922	0.78980
2673.16791	0.79067
2675.09661	0.79152
2677.02530	0.79243
2678.95399	0.79347
2680.88269	0.79465
2682.81138	0.79594
2684.74007	0.79729
2686.66876	0.79866
2688.59746	0.80007
2690.52615	0.80156
2692.45484	0.80312
2694.38353	0.80470
2696.31223	0.80630
2698.24092	0.80796
2700.16961	0.80973
2702.09830	0.81158
2704.02700	0.81342
2705.95569	0.81521
2707.88438	0.81699
2709.81307	0.81884
2711.74177	0.82072
2713.67046	0.82256
2715.59915	0.82435
2717.52784	0.82615
2719.45654	0.82804
2721.38523	0.82995
2723.31392	0.83180
2725.24261	0.83358
2727.17131	0.83530
2729.10000	0.83702
2731.02869	0.83872
2732.95738	0.84039
2734.88608	0.84200
2736.81477	0.84355
2738.74346	0.84509
2740.67216	0.84661
2742.60085	0.84808
2744.52954	0.84955
2746.45823	0.85099
2748.38693	0.85234
2750.31562	0.85363
2752.24431	0.85485
2754.17300	0.85603
2756.10170	0.85719
2758.03039	0.85831
2759.95908	0.85935
2761.88777	0.86032
2763.81647	0.86127
2765.74516	0.86220
2767.67385	0.86310
2769.60254	0.86390
2771.53124	0.86468
2773.45993	0.86551
2775.38862	0.86637
2777.31731	0.86718
2779.24601	0.86795
2781.17470	0.86877
2783.10339	0.86959
2785.03208	0.87027
2786.96078	0.87087
2788.88947	0.87155
2790.81816	0.87234
2792.74685	0.87310
2794.67555	0.87383
2796.60424	0.87465
2798.53293	0.87549
2800.46163	0.87625
2802.39032	0.87701
2804.31901	0.87781
2806.24770	0.87859
2808.17640	0.87935
2810.10509	0.88008
2812.03378	0.88081
2813.96247	0.88170
2815.89117	0.88270
2817.81986	0.88366
2819.74855	0.88459
2821.67724	0.88545
2823.60594	0.88621
2825.53463	0.88695
2827.46332	0.88772
2829.39201	0.88856
2831.32071	0.88952
2833.24940	0.89048
2835.17809	0.89127
2837.10678	0.89200
2839.03548	0.89276
2840.96417	0.89349
2842.89286	0.89412
2844.82155	0.89462
2846.75025	0.89487
2848.67894	0.89501
2850.60763	0.89545
2852.53632	0.89638
2854.46502	0.89762
2856.39371	0.89891
2858.32240	0.90011
2860.25110	0.90122
2862.17979	0.90227
2864.10848	0.90329
2866.03717	0.90416
2867.96587	0.90485
2869.89456	0.90555
2871.82325	0.90637
2873.75194	0.90716
2875.68064	0.90781
2877.60933	0.90842
2879.53802	0.90908
2881.46671	0.90969
2883.39541	0.91020
2885.32410	0.91064
2887.25279	0.91109
2889.18148	0.91162
2891.11018	0.91217
2893.03887	0.91262
2894.96756	0.91299
2896.89625	0.91325
2898.82495	0.91341
2900.75364	0.91357
2902.68233	0.91377
2904.61102	0.91391
2906.53972	0.91401
2908.46841	0.91416
2910.39710	0.91418
2912.32579	0.91390
2914.25449	0.91336
2916.18318	0.91282
2918.11187	0.91263
2920.04057	0.91283
2921.96926	0.91321
2923.89795	0.91371
2925.82664	0.91441
2927.75534	0.91522
2929.68403	0.91595
2931.61272	0.91657
2933.54141	0.91719
2935.47011	0.91771
2937.39880	0.91810
2939.32749	0.91851
2941.25618	0.91896
2943.18488	0.91938
2945.11357	0.91971
2947.04226	0.91996
2948.97095	0.92018
2950.89965	0.92040
2952.82834	0.92056
2954.75703	0.92060
2956.68572	0.92059
2958.61442	0.92065
2960.54311	0.92079
2962.47180	0.92098
2964.40049	0.92126
2966.32919	0.92157
2968.25788	0.92182
2970.18657	0.92203
2972.11526	0.92225
2974.04396	0.92247
2975.97265	0.92267
2977.90134	0.92288
2979.83003	0.92301
2981.75873	0.92299
2983.68742	0.92294
2985.61611	0.92292
2987.54481	0.92294
2989.47350	0.92310
2991.40219	0.92332
2993.33088	0.92346
2995.25958	0.92351
2997.18827	0.92349
2999.11696	0.92343
3001.04565	0.92338
3002.97435	0.92339
3004.90304	0.92343
3006.83173	0.92344
3008.76042	0.92343
3010.68912	0.92352
3012.61781	0.92374
3014.54650	0.92390
3016.47519	0.92389
3018.40389	0.92380
3020.33258	0.92373
3022.26127	0.92367
3024.18996	0.92361
3026.11866	0.92349
3028.04735	0.92334
3029.97604	0.92330
3031.90473	0.92335
3033.83343	0.92337
3035.76212	0.92324
3037.69081	0.92309
3039.61950	0.92313
3041.54820	0.92326
3043.47689	0.92327
3045.40558	0.92317
3047.33428	0.92306
3049.26297	0.92296
3051.19166	0.92287
3053.12035	0.92283
3055.04905	0.92275
3056.97774	0.92254
3058.90643	0.92237
3060.83512	0.92239
3062.76382	0.92258
3064.69251	0.92276
3066.62120	0.92282
3068.54989	0.92281
3070.47859	0.92269
3072.40728	0.92249
3074.33597	0.92236
3076.26466	0.92234
3078.19336	0.92236
3080.12205	0.92233
3082.05074	0.92229
3083.97943	0.92236
3085.90813	0.92240
3087.83682	0.92222
3089.76551	0.92196
3091.69420	0.92178
3093.62290	0.92164
3095.55159	0.92151
3097.48028	0.92146
3099.40897	0.92146
3101.33767	0.92145
3103.26636	0.92147
3105.19505	0.92149
3107.12375	0.92145
3109.05244	0.92136
3110.98113	0.92125
3112.90982	0.92124
3114.83852	0.92137
3116.76721	0.92147
3118.69590	0.92141
3120.62459	0.92119
3122.55329	0.92096
3124.48198	0.92076
3126.41067	0.92059
3128.33936	0.92062
3130.26806	0.92079
3132.19675	0.92082
3134.12544	0.92069
3136.05413	0.92055
3137.98283	0.92048
3139.91152	0.92044
3141.84021	0.92036
3143.76890	0.92030
3145.69760	0.92027
3147.62629	0.92027
3149.55498	0.92036
3151.48367	0.92049
3153.41237	0.92049
3155.34106	0.92029
3157.26975	0.92004
3159.19844	0.91993
3161.12714	0.91989
3163.05583	0.91977
3164.98452	0.91965
3166.91322	0.91964
3168.84191	0.91968
3170.77060	0.91969
3172.69929	0.91967
3174.62799	0.91961
3176.55668	0.91947
3178.48537	0.91936
3180.41406	0.91933
3182.34276	0.91932
3184.27145	0.91936
3186.20014	0.91948
3188.12883	0.91958
3190.05753	0.91951
3191.98622	0.91936
3193.91491	0.91933
3195.84360	0.91936
3197.77230	0.91933
3199.70099	0.91934
3201.62968	0.91949
3203.55837	0.91969
3205.48707	0.91971
3207.41576	0.91955
3209.34445	0.91939
3211.27314	0.91936
3213.20184	0.91945
3215.13053	0.91955
3217.05922	0.91964
3218.98791	0.91975
3220.91661	0.91976
3222.84530	0.91963
3224.77399	0.91952
3226.70269	0.91951
3228.63138	0.91960
3230.56007	0.91983
3232.48876	0.91998
3234.41746	0.91988
3236.34615	0.91964
3238.27484	0.91948
3240.20353	0.91949
3242.13223	0.91958
3244.06092	0.91971
3245.98961	0.91989
3247.91830	0.91991
3249.84700	0.91970
3251.77569	0.91956
3253.70438	0.91967
3255.63307	0.91977
3257.56177	0.91966
3259.49046	0.91944
3261.41915	0.91929
3263.34784	0.91928
3265.27654	0.91929
3267.20523	0.91935
3269.13392	0.91965
3271.06261	0.91996
3272.99131	0.92001
3274.92000	0.91982
3276.84869	0.91959
3278.77738	0.91943
3280.70608	0.91935
3282.63477	0.91932
3284.56346	0.91929
3286.49216	0.91927
3288.42085	0.91941
3290.34954	0.91969
3292.27823	0.91977
3294.20693	0.91964
3296.13562	0.91952
3298.06431	0.91942
3299.99300	0.91936
3301.92170	0.91942
3303.85039	0.91957
3305.77908	0.91968
3307.70777	0.91977
3309.63647	0.91974
3311.56516	0.91942
3313.49385	0.91898
3315.42254	0.91877
3317.35124	0.91870
3319.27993	0.91860
3321.20862	0.91857
3323.13731	0.91872
3325.06601	0.91894
3326.99470	0.91906
3328.92339	0.91903
3330.85208	0.91898
3332.78078	0.91894
3334.70947	0.91904
3336.63816	0.91939
3338.56685	0.91967
3340.49555	0.91970
3342.42424	0.91966
3344.35293	0.91949
3346.28163	0.91926
3348.21032	0.91927
3350.13901	0.91945
3352.06770	0.91948
3353.99640	0.91939
3355.92509	0.91936
3357.85378	0.91948
3359.78247	0.91968
3361.71117	0.91976
3363.63986	0.91977
3365.56855	0.91989
3367.49724	0.92004
3369.42594	0.92006
3371.35463	0.91991
3373.28332	0.91969
3375.21201	0.91957
3377.14071	0.91955
3379.06940	0.91961
3380.99809	0.91970
3382.92678	0.91971
3384.85548	0.91971
3386.78417	0.91981
3388.71286	0.92005
3390.64155	0.92034
3392.57025	0.92047
3394.49894	0.92041
3396.42763	0.92043
3398.35632	0.92067
3400.28502	0.92095
3402.21371	0.92098
3404.14240	0.92073
3406.07109	0.92048
3407.99979	0.92054
3409.92848	0.92080
3411.85717	0.92102
3413.78587	0.92096
3415.71456	0.92065
3417.64325	0.92037
3419.57194	0.92024
3421.50064	0.92030
3423.42933	0.92049
3425.35802	0.92072
3427.28671	0.92095
3429.21541	0.92121
3431.14410	0.92142
3433.07279	0.92162
3435.00148	0.92177
3436.93018	0.92166
3438.85887	0.92134
3440.78756	0.92106
3442.71625	0.92087
3444.64495	0.92078
3446.57364	0.92084
3448.50233	0.92097
3450.43102	0.92099
3452.35972	0.92094
3454.28841	0.92097
3456.21710	0.92109
3458.14579	0.92134
3460.07449	0.92158
3462.00318	0.92158
3463.93187	0.92161
3465.86056	0.92194
3467.78926	0.92226
3469.71795	0.92226
3471.64664	0.92206
3473.57534	0.92194
3475.50403	0.92197
3477.43272	0.92214
3479.36141	0.92239
3481.29011	0.92247
3483.21880	0.92234
3485.14749	0.92229
3487.07618	0.92236
3489.00488	0.92234
3490.93357	0.92231
3492.86226	0.92243
3494.79095	0.92264
3496.71965	0.92280
3498.64834	0.92287
3500.57703	0.92290
3502.50572	0.92290
3504.43442	0.92281
3506.36311	0.92267
3508.29180	0.92255
3510.22049	0.92265
3512.14919	0.92300
3514.07788	0.92316
3516.00657	0.92290
3517.93526	0.92258
3519.86396	0.92261
3521.79265	0.92297
3523.72134	0.92319
3525.65003	0.92299
3527.57873	0.92275
3529.50742	0.92273
3531.43611	0.92278
3533.36481	0.92299
3535.29350	0.92331
3537.22219	0.92342
3539.15088	0.92343
3541.07958	0.92377
3543.00827	0.92424
3544.93696	0.92426
3546.86565	0.92364
3548.79435	0.92315
3550.72304	0.92315
3552.65173	0.92314
3554.58042	0.92302
3556.50912	0.92303
3558.43781	0.92310
3560.36650	0.92313
3562.29519	0.92299
3564.22389	0.92242
3566.15258	0.92187
3568.08127	0.92221
3570.00996	0.92264
3571.93866	0.92263
3573.86735	0.92259
3575.79604	0.92275
3577.72473	0.92294
3579.65343	0.92303
3581.58212	0.92314
3583.51081	0.92346
3585.43950	0.92368
3587.36820	0.92308
3589.29689	0.92233
3591.22558	0.92242
3593.15428	0.92250
3595.08297	0.92213
3597.01166	0.92185
3598.94035	0.92184
3600.86905	0.92181
3602.79774	0.92175
3604.72643	0.92151
3606.65512	0.92105
3608.58382	0.92092
3610.51251	0.92115
3612.44120	0.92116
3614.36989	0.92116
3616.29859	0.92106
3618.22728	0.92055
3620.15597	0.92029
3622.08466	0.92058
3624.01336	0.92062
3625.94205	0.92015
3627.87074	0.91906
3629.79943	0.91836
3631.72813	0.91931
3633.65682	0.92023
3635.58551	0.92045
3637.51420	0.92020
3639.44290	0.91989
3641.37159	0.91968
3643.30028	0.91965
3645.22897	0.91962
3647.15767	0.91925
3649.08636	0.91876
3651.01505	0.91885
3652.94375	0.91908
3654.87244	0.91932
3656.80113	0.91952
3658.72982	0.91962
3660.65852	0.91955
3662.58721	0.91930
3664.51590	0.91911
3666.44459	0.91905
3668.37329	0.91856
3670.30198	0.91739
3672.23067	0.91710
3674.15936	0.91747
3676.08806	0.91737
3678.01675	0.91745
3679.94544	0.91811
3681.87413	0.91887
3683.80283	0.91947
3685.73152	0.91992
3687.66021	0.92036
3689.58890	0.92064
3691.51760	0.92052
3693.44629	0.92052
3695.37498	0.92075
3697.30367	0.92095
3699.23237	0.92084
3701.16106	0.92070
3703.08975	0.92130
3705.01844	0.92233
3706.94714	0.92291
3708.87583	0.92286
3710.80452	0.92248
3712.73322	0.92302
3714.66191	0.92422
3716.59060	0.92501
3718.51929	0.92541
3720.44799	0.92579
3722.37668	0.92625
3724.30537	0.92641
3726.23406	0.92639
3728.16276	0.92675
3730.09145	0.92737
3732.02014	0.92795
3733.94883	0.92827
3735.87753	0.92853
3737.80622	0.92889
3739.73491	0.92875
3741.66360	0.92809
3743.59230	0.92724
3745.52099	0.92673
3747.44968	0.92601
3749.37837	0.92447
3751.30707	0.92383
3753.23576	0.92577
3755.16445	0.92728
3757.09314	0.92758
3759.02184	0.92748
3760.95053	0.92777
3762.87922	0.92796
3764.80791	0.92774
3766.73661	0.92770
3768.66530	0.92803
3770.59399	0.92817
3772.52269	0.92806
3774.45138	0.92807
3776.38007	0.92840
3778.30876	0.92909
3780.23746	0.92943
3782.16615	0.92874
3784.09484	0.92802
3786.02353	0.92810
3787.95223	0.92858
3789.88092	0.92880
3791.80961	0.92872
3793.73830	0.92841
3795.66700	0.92789
3797.59569	0.92747
3799.52438	0.92739
3801.45307	0.92735
3803.38177	0.92722
3805.31046	0.92709
3807.23915	0.92730
3809.16784	0.92792
3811.09654	0.92829
3813.02523	0.92822
3814.95392	0.92771
3816.88261	0.92721
3818.81131	0.92738
3820.74000	0.92750
3822.66869	0.92742
3824.59738	0.92767
3826.52608	0.92791
3828.45477	0.92782
3830.38346	0.92730
3832.31216	0.92675
3834.24085	0.92669
3836.16954	0.92666
3838.09823	0.92631
3840.02693	0.92652
3841.95562	0.92735
3843.88431	0.92821
3845.81300	0.92883
3847.74170	0.92901
3849.67039	0.92870
3851.59908	0.92732
3853.52777	0.92441
3855.45647	0.92429
3857.38516	0.92618
3859.31385	0.92740
3861.24254	0.92793
3863.17124	0.92807
3865.09993	0.92809
3867.02862	0.92760
3868.95731	0.92650
3870.88601	0.92600
3872.81470	0.92690
3874.74339	0.92796
3876.67208	0.92836
3878.60078	0.92816
3880.52947	0.92788
3882.45816	0.92792
3884.38685	0.92783
3886.31555	0.92765
3888.24424	0.92776
3890.17293	0.92771
3892.10162	0.92747
3894.03032	0.92770
3895.95901	0.92784
3897.88770	0.92740
3899.81640	0.92651
3901.74509	0.92572
3903.67378	0.92587
3905.60247	0.92695
3907.53117	0.92783
3909.45986	0.92808
3911.38855	0.92809
3913.31724	0.92815
3915.24594	0.92806
3917.17463	0.92769
3919.10332	0.92753
3921.03201	0.92770
3922.96071	0.92785
3924.88940	0.92798
3926.81809	0.92819
3928.74678	0.92831
3930.67548	0.92837
3932.60417	0.92851
3934.53286	0.92853
3936.46155	0.92840
3938.39025	0.92831
3940.31894	0.92808
3942.24763	0.92768
3944.17632	0.92761
3946.10502	0.92786
3948.03371	0.92790
3949.96240	0.92766
3951.89109	0.92751
3953.81979	0.92750
3955.74848	0.92754
3957.67717	0.92762
3959.60587	0.92766
3961.53456	0.92766
3963.46325	0.92770
3965.39194	0.92790
3967.32064	0.92817
3969.24933	0.92818
3971.17802	0.92797
3973.10671	0.92785
3975.03541	0.92798
3976.96410	0.92819
3978.89279	0.92823
3980.82148	0.92821
3982.75018	0.92833
3984.67887	0.92841
3986.60756	0.92819
3988.53625	0.92788
3990.46495	0.92775
3992.39364	0.92784
3994.32233	0.92802
3996.25102	0.92811
